timestamp,red,ir
1766327382.3195798,82321,82215
1766327382.3307664,123179,117365
1766327382.3418875,123156,117342
1766327382.352981,123130,117323
1766327382.3641396,123137,117329
1766327382.3752937,123146,117340
1766327382.386361,123173,117345
1766327382.3974426,123212,117357
1766327382.4085286,123248,117363
1766327382.419695,123283,117378
1766327382.4307988,123275,117371
1766327382.4418783,123294,117379
1766327382.452992,123313,117386
1766327382.4640353,123338,117404
1766327382.4750235,123346,117397
1766327382.4859807,123226,117324
1766327382.4969351,123013,117246
1766327382.5079985,122938,117202
1766327382.5189698,122942,117205
1766327382.5299275,122967,117200
1766327382.540886,123017,117226
1766327382.5518396,123043,117237
1766327382.5628266,123033,117238
1766327382.573791,123011,117235
1766327382.5847695,123025,117223
1766327382.5958765,123036,117238
1766327382.6068487,123060,117243
1766327382.6178567,123083,117255
1766327382.6288161,123106,117266
1766327382.6397705,123126,117273
1766327382.6507254,123128,117279
1766327382.6616757,123138,117281
1766327382.672642,123068,116928
1766327382.6835985,122902,116865
1766327382.6945498,122629,116751
1766327382.7055063,122567,116721
1766327382.7164721,122611,116766
1766327382.727425,122631,116752
1766327382.7383776,122670,116784
1766327382.7493293,122770,116776
1766327382.7603188,122771,116801
1766327382.7712853,122792,116811
1766327382.78224,122792,116800
1766327382.7931948,123294,117379
1766327382.8041618,122844,116820
1766327382.8151205,123313,117386
1766327382.8260736,123313,117386
1766327382.8370368,122866,116823
1766327382.8479893,123338,117404
1766327382.8589454,123338,117404
1766327382.8699038,123338,117404
1766327382.8808582,122951,116854
1766327382.89181,123346,117397
1766327382.9027627,123346,117397
1766327382.9137192,123346,117397
1766327382.924685,122939,116879
1766327382.9358308,123226,117324
1766327382.946898,123226,117324
1766327382.9579837,123018,116854
1766327382.968999,123013,117246
1766327382.979957,123013,117246
1766327382.990911,123013,117246
1766327383.0018644,123058,116902
1766327383.0128253,122938,117202
1766327383.0237947,122938,117202
1766327383.0347514,123051,116883
1766327383.045702,122942,117205
1766327383.0566545,122942,117205
1766327383.0676138,122942,117205
1766327383.078566,123061,116878
1766327383.0895212,122967,117200
1766327383.1004739,122967,117200
1766327383.1114273,122967,117200
1766327383.1223872,122815,116767
1766327383.1333404,123017,117226
1766327383.1445208,123017,117226
1766327383.1556814,122584,116635
1766327383.1667757,123043,117237
1766327383.1779332,123043,117237
1766327383.1891377,123043,117237
1766327383.2002032,122574,116681
1766327383.2111657,123033,117238
1766327383.2221394,123033,117238
1766327383.233102,122650,116731
1766327383.2440577,123011,117235
1766327383.2550364,123011,117235
1766327383.2660012,123011,117235
1766327383.2769704,122690,116722
1766327383.2879295,123025,117223
1766327383.2988822,123025,117223
1766327383.3099563,123025,117223
1766327383.321046,122788,116764
1766327383.3320987,123036,117238
1766327383.3431368,123036,117238
1766327383.3541684,122820,116750
1766327383.3652432,123060,117243
1766327383.3762834,123060,117243
1766327383.387307,123060,117243
1766327383.3984962,122833,116773
1766327383.4095616,123083,117255
1766327383.4205377,123083,117255
1766327383.4314928,123083,117255
1766327383.4424493,123106,117266
1766327383.4534023,123106,117266
1766327383.4643662,123106,117266
1766327383.4753249,122872,116784
1766327383.4862788,123126,117273
1766327383.4972308,123126,117273
1766327383.508183,123126,117273
1766327383.5191483,122910,116798
1766327383.5301077,123128,117279
1766327383.5410604,123128,117279
1766327383.5520122,122996,116847
1766327383.5629957,123138,117281
1766327383.5739613,123138,117281
1766327383.5849488,123138,117281
1766327383.5960917,123015,116825
1766327383.6070592,123068,116928
1766327383.6180294,123068,116928
1766327383.6289878,123068,116928
1766327383.6400168,123009,116849
1766327383.6510854,122902,116865
1766327383.6620543,122902,116865
1766327383.6730382,123093,116821
1766327383.683994,122629,116751
1766327383.6949482,122629,116751
1766327383.7059019,122629,116751
1766327383.7168686,123121,116869
1766327383.7278209,122567,116721
1766327383.738776,122567,116721
1766327383.7497272,122567,116896
1766327383.7607224,122611,116766
1766327383.7716935,122611,116766
1766327383.7826486,122611,116766
1766327383.793602,123094,116848
1766327383.8045554,122631,116752
1766327383.8155162,122631,116752
1766327383.8264704,122631,116752
1766327383.8374221,122823,116723
1766327383.8483748,122670,116784
1766327383.859327,122670,116784
1766327383.8702831,122599,116639
1766327383.8812342,122770,116776
1766327383.8921869,122770,116776
1766327383.9031384,122770,116776
1766327383.9140975,122591,116625
1766327383.9250534,122771,116801
1766327383.9360058,122771,116801
1766327383.9469671,122771,116801
1766327383.9579246,122579,116634
1766327383.9689083,122792,116811
1766327383.979862,122792,116811
1766327383.9908137,122635,116628
1766327384.001765,122792,116800
1766327384.012717,122792,116800
1766327384.023695,122792,116800
1766327384.0346494,122740,116690
1766327384.045606,122844,116820
1766327384.0565584,122844,116820
1766327384.0675175,122844,116820
1766327384.0784712,122866,116823
1766327384.0894248,122866,116823
1766327384.1003795,122866,116823
1766327384.111333,122791,116698
1766327384.1222923,122951,116854
1766327384.1332445,122951,116854
1766327384.1441958,122951,116854
1766327384.1551466,122781,116701
1766327384.1661396,122939,116879
1766327384.1770947,122939,116879
1766327384.188046,122831,116751
1766327384.1991513,123018,116854
1766327384.2102222,123018,116854
1766327384.2212362,123018,116854
1766327384.2321932,122875,116740
1766327384.2431452,123058,116902
1766327384.2540975,123058,116902
1766327384.2650673,123058,116902
1766327384.2760253,122906,116751
1766327384.28699,123051,116883
1766327384.297945,123051,116883
1766327384.3089132,122981,116736
1766327384.319876,123061,116878
1766327384.3308318,123061,116878
1766327384.341784,123061,116878
1766327384.352737,123021,116785
1766327384.363723,122815,116767
1766327384.3746955,122815,116767
1766327384.3856506,122815,116822
1766327384.3967757,122584,116635
1766327384.407829,122584,116635
1766327384.4188046,122584,116635
1766327384.4297624,123084,116818
1766327384.4407156,122574,116681
1766327384.4516673,122574,116681
1766327384.462728,122574,116681
1766327384.4737017,123126,116812
1766327384.4846578,122650,116731
1766327384.4956164,122650,116731
1766327384.5065694,123110,116774
1766327384.5175314,122690,116722
1766327384.5284908,122690,116722
1766327384.5394428,122690,116722
1766327384.550393,122897,116707
1766327384.5613847,122788,116764
1766327384.5723584,122788,116764
1766327384.583312,122788,116764
1766327384.59444,122669,116618
1766327384.60541,122820,116750
1766327384.6163752,122820,116750
1766327384.6273303,122547,116560
1766327384.6382835,122833,116773
1766327384.6492357,122833,116773
1766327384.6607313,122833,116773
1766327384.6717584,122537,116564
1766327384.6827197,122820,116745
1766327384.693674,122820,116745
1766327384.7046323,122585,116607
1766327384.7156267,122872,116784
1766327384.7265954,122872,116784
1766327384.7375484,122872,116784
1766327384.7485006,122621,116599
1766327384.7594523,122910,116798
1766327384.7704413,122910,116798
1766327384.7813964,122910,116798
1766327384.7923493,122676,116633
1766327384.8033006,122996,116847
1766327384.8142571,122996,116847
1766327384.8252153,122734,116634
1766327384.8361695,123015,116825
1766327384.8471217,123015,116825
1766327384.858073,123015,116825
1766327384.8690555,122721,116646
1766327384.880013,123009,116849
1766327384.8909655,123009,116849
1766327384.9019167,123009,116849
1766327384.9128678,123093,116821
1766327384.9238243,123093,116821
1766327384.9347754,123093,116821
1766327384.9457276,122813,116664
1766327384.9566786,123121,116869
1766327384.9676552,123121,116869
1766327384.978613,123121,116869
1766327384.9895658,122872,116683
1766327385.0005176,123180,116896
1766327385.011483,123180,116896
1766327385.0224464,122932,116729
1766327385.0334063,123094,116848
1766327385.0443587,123094,116848
1766327385.0553105,123094,116848
1766327385.0662873,122988,116712
1766327385.0772426,122823,116723
1766327385.088195,122823,116723
1766327385.0991461,122823,116723
1766327385.1100984,123021,116727
1766327385.1210568,122599,116639
1766327385.1320097,122599,116639
1766327385.1429617,123034,116762
1766327385.1539135,122591,116625
1766327385.164905,122591,116625
1766327385.1758626,122591,116625
1766327385.1868145,123077,116743
1766327385.1978254,122579,116634
1766327385.2087822,122579,116634
1766327385.2197473,122579,116634
1766327385.2307022,123068,116724
1766327385.2416537,122635,116628
1766327385.252606,122635,116628
1766327385.2635589,123073,116733
1766327385.2745183,122740,116690
1766327385.2854705,122740,116690
1766327385.296421,122740,116690
1766327385.3073728,122814,116623
1766327385.3183331,122800,116711
1766327385.3292866,122800,116711
1766327385.340238,122549,116494
1766327385.3512151,122791,116698
1766327385.3623276,122791,116698
1766327385.3732913,122791,116698
1766327385.3842466,122488,116491
1766327385.3952868,122781,116701
1766327385.4063523,122781,116701
1766327385.4173486,122781,116701
1766327385.428307,122465,116486
1766327385.439261,122831,116751
1766327385.4502146,122831,116751
1766327385.4611678,122502,116488
1766327385.4721277,122875,116740
1766327385.4830801,122875,116740
1766327385.494032,122875,116740
1766327385.504983,122571,116531
1766327385.51594,122906,116751
1766327385.5268931,122906,116751
1766327385.5378437,122906,116751
1766327385.5487964,122981,116736
1766327385.559747,122981,116736
1766327385.570729,122981,116736
1766327385.581693,122626,116546
1766327385.592837,123021,116785
1766327385.603853,123021,116785
1766327385.6148236,123021,116785
1766327385.6258645,122629,116539
1766327385.6368713,123068,116822
1766327385.647848,123068,116822
1766327385.6588051,122657,116556
1766327385.6697712,123084,116818
1766327385.6807265,123084,116818
1766327385.6916788,123084,116818
1766327385.702633,122711,116570
1766327385.7135923,123126,116812
1766327385.7245631,123126,116812
1766327385.7355158,123126,116812
1766327385.7464721,122727,116586
1766327385.7574296,123110,116774
1766327385.768431,123110,116774
1766327385.7794738,122820,116593
1766327385.7904272,122897,116707
1766327385.8013783,122897,116707
1766327385.8123298,122897,116707
1766327385.8232915,122866,116633
1766327385.834245,122669,116618
1766327385.845198,122669,116618
1766327385.8561616,122669,116664
1766327385.8671272,122547,116560
1766327385.8780832,122547,116560
1766327385.8890445,122547,116560
1766327385.8999972,122918,116641
1766327385.9109492,122537,116564
1766327385.9219074,122537,116564
1766327385.9328642,122537,116564
1766327385.9438195,122919,116643
1766327385.954773,122585,116607
1766327385.9657593,122585,116607
1766327385.9767244,122951,116678
1766327385.9876761,122621,116599
1766327385.9986303,122621,116599
1766327386.009583,122621,116599
1766327386.0205452,122975,116663
1766327386.0315008,122676,116633
1766327386.0424538,122676,116633
1766327386.0534947,122676,116633
1766327386.0653875,122931,116656
1766327386.0764973,122734,116634
1766327386.0875914,122734,116634
1766327386.0987306,122753,116563
1766327386.1098228,122721,116646
1766327386.120953,122721,116646
1766327386.1320424,122721,116646
1766327386.144074,122459,116444
1766327386.1551752,122718,116606
1766327386.1664038,122718,116606
1766327386.177622,122337,116370
1766327386.188711,122813,116664
1766327386.1997883,122813,116664
1766327386.210849,122813,116664
1766327386.221824,122320,116399
1766327386.232782,122872,116683
1766327386.2437384,122872,116683
1766327386.2546945,122358,116428
1766327386.2656565,122932,116729
1766327386.2766104,122932,116729
1766327386.2875752,122932,116729
1766327386.2985313,122375,116418
1766327386.3094857,122988,116712
1766327386.320443,122988,116712
1766327386.3314068,122988,116712
1766327386.3423626,122386,116438
1766327386.3533156,123021,116727
1766327386.364286,123021,116727
1766327386.3752422,122395,116437
1766327386.3861942,123034,116762
1766327386.3973205,123034,116762
1766327386.4084349,123034,116762
1766327386.4194016,122372,116424
1766327386.4303584,123077,116743
1766327386.441316,123077,116743
1766327386.4522705,123077,116445
1766327386.4632232,123068,116724
1766327386.4741936,123068,116724
1766327386.4851475,123068,116724
1766327386.4961007,122419,116449
1766327386.5070539,123073,116733
1766327386.5180082,123073,116733
1766327386.528961,123073,116733
1766327386.5399148,122463,116473
1766327386.5509,122814,116623
1766327386.561855,122814,116623
1766327386.5728354,122518,116492
1766327386.5837927,122549,116494
1766327386.5950446,122549,116494
1766327386.6061163,122549,116494
1766327386.6172268,122561,116507
1766327386.6282604,122488,116491
1766327386.6392205,122488,116491
1766327386.6501768,122488,116491
1766327386.6611314,122641,116560
1766327386.6720855,122465,116486
1766327386.6830413,122465,116486
1766327386.6939948,122666,116545
1766327386.704951,122502,116488
1766327386.715903,122502,116488
1766327386.726863,122502,116488
1766327386.7378137,122700,116557
1766327386.7487674,122571,116531
1766327386.759721,122571,116531
1766327386.7707005,122721,116564
1766327386.7816563,122588,116510
1766327386.79261,122588,116510
1766327386.8035617,122588,116510
1766327386.8145149,122790,116586
1766327386.8254864,122626,116546
1766327386.8364394,122626,116546
1766327386.847392,122626,116546
1766327386.858345,122814,116600
1766327386.8692982,122629,116539
1766327386.8802507,122629,116539
1766327386.8912024,122818,116586
1766327386.902154,122657,116556
1766327386.9131064,122657,116556
1766327386.9240665,122657,116556
1766327386.9350924,122865,116616
1766327386.9460533,122711,116570
1766327386.957008,122711,116570
1766327386.967982,122711,116570
1766327386.9789414,122706,116551
1766327386.9898949,122727,116586
1766327387.000848,122727,116586
1766327387.0118022,122340,116389
1766327387.0227609,122820,116593
1766327387.033715,122820,116593
1766327387.044743,122820,116593
1766327387.0557008,122191,116330
1766327387.0666614,122866,116633
1766327387.077618,122866,116633
1766327387.0885708,122148,116324
1766327387.099523,122921,116664
1766327387.1104743,122921,116664
1766327387.121433,122921,116664
1766327387.132387,122183,116329
1766327387.1433537,122918,116641
1766327387.15437,122918,116641
1766327387.1653497,122918,116641
1766327387.1763296,122224,116358
1766327387.187288,122919,116643
1766327387.1982405,122919,116643
1766327387.2091937,122258,116344
1766327387.220165,122951,116678
1766327387.2311194,122951,116678
1766327387.2420726,122951,116678
1766327387.2530375,122324,116389
1766327387.2639942,122975,116663
1766327387.27495,122975,116663
1766327387.2859123,122975,116663
1766327387.296867,122341,116416
1766327387.3078187,122931,116656
1766327387.318773,122931,116656
1766327387.329739,122328,116383
1766327387.3406997,122753,116563
1766327387.3516526,122753,116563
1766327387.3626132,122753,116563
1766327387.3735871,122371,116407
1766327387.384591,122459,116444
1766327387.395666,122459,116444
1766327387.4068332,122427,116442
1766327387.4179664,122337,116370
1766327387.4289951,122337,116370
1766327387.4400237,122337,116370
1766327387.4510474,122484,116456
1766327387.4620664,122320,116399
1766327387.4731176,122320,116399
1766327387.4841845,122320,116399
1766327387.495208,122506,116483
1766327387.5062299,122358,116428
1766327387.5172794,122358,116428
1766327387.528316,122603,116474
1766327387.5393329,122375,116418
1766327387.5503514,122375,116418
1766327387.5613706,122375,116418
1766327387.5724149,122659,116512
1766327387.583439,122386,116438
1766327387.5946205,122386,116438
1766327387.6057172,122678,116508
1766327387.6167638,122395,116437
1766327387.6278281,122395,116437
1766327387.638866,122395,116437
1766327387.6500478,122745,116533
1766327387.6611302,122372,116424
1766327387.6721942,122372,116424
1766327387.683236,122372,116424
1766327387.6943457,122761,116556
1766327387.7053742,122405,116445
1766327387.7163966,122405,116445
1766327387.7274218,122822,116559
1766327387.7384408,122419,116449
1766327387.749458,122419,116449
1766327387.7604795,122419,116449
1766327387.7715209,122825,116567
1766327387.7825372,122463,116473
1766327387.7936158,122463,116473
1766327387.8046591,122591,116451
1766327387.8156998,122518,116492
1766327387.826736,122518,116492
1766327387.8377829,122518,116492
1766327387.8488207,122322,116351
1766327387.859861,122561,116507
1766327387.8709304,122561,116507
1766327387.8819675,122561,116507
1766327387.893002,122198,116325
1766327387.9040713,122641,116560
1766327387.915118,122641,116560
1766327387.9261582,122222,116301
1766327387.9371986,122666,116545
1766327387.9482381,122666,116545
1766327387.9592776,122666,116545
1766327387.9703352,122261,116339
1766327387.9813921,122700,116557
1766327387.992431,122700,116557
1766327388.0034943,122312,116374
1766327388.0145357,122721,116564
1766327388.0255804,122721,116564
1766327388.0366182,122721,116564
1766327388.0476744,122423,116419
1766327388.0587118,122790,116586
1766327388.0697463,122790,116586
1766327388.0807872,122790,116586
1766327388.0918279,122465,116445
1766327388.1028638,122814,116600
1766327388.1139255,122814,116600
1766327388.1249652,122466,116408
1766327388.1360016,122818,116586
1766327388.1472661,122818,116586
1766327388.1588426,122818,116586
1766327388.1700695,122492,116427
1766327388.1812983,122865,116616
1766327388.192429,122865,116616
1766327388.2035456,122519,116450
1766327388.2148204,122706,116551
1766327388.2262132,122706,116551
1766327388.2373593,122706,116551
1766327388.2483692,122622,116475
1766327388.2593405,122340,116389
1766327388.270316,122340,116389
1766327388.2812772,122652,116479
1766327388.2922375,122191,116330
1766327388.3031962,122191,116330
1766327388.314154,122191,116330
1766327388.3251147,122739,116523
1766327388.3360717,122148,116324
1766327388.3470247,122148,116324
1766327388.357976,122148,116324
1766327388.3689756,122809,116530
1766327388.3799381,122183,116329
1766327388.3908925,122183,116329
1766327388.4020064,122813,116564
1766327388.413061,122224,116358
1766327388.4240336,122224,116358
1766327388.4349895,122224,116358
1766327388.4459429,122844,116546
1766327388.4569004,122258,116344
1766327388.4678652,122258,116344
1766327388.4788187,122258,116344
1766327388.4897718,122844,116529
1766327388.5007255,122324,116389
1766327388.5116775,122324,116389
1766327388.5226347,122903,116562
1766327388.5335877,122341,116416
1766327388.5445402,122341,116416
1766327388.555497,122341,116416
1766327388.5664542,122849,116530
1766327388.577452,122328,116383
1766327388.588445,122328,116383
1766327388.5994818,122575,116395
1766327388.6104453,122371,116407
1766327388.6214209,122371,116407
1766327388.6323776,122371,116407
1766327388.6433315,122406,116353
1766327388.654292,122427,116442
1766327388.6652586,122427,116442
1766327388.676212,122427,116442
1766327388.6871653,122396,116345
1766327388.698119,122484,116456
1766327388.7090707,122484,116456
1766327388.7200308,122417,116384
1766327388.7309878,122506,116483
1766327388.7419384,122506,116483
1766327388.75289,122506,116483
1766327388.7638469,122483,116385
1766327388.7748315,122603,116474
1766327388.7857864,122603,116474
1766327388.7967389,122603,116474
1766327388.807689,122548,116406
1766327388.818665,122659,116512
1766327388.82962,122659,116512
1766327388.8405757,122610,116431
1766327388.8515282,122678,116508
1766327388.8624794,122678,116508
1766327388.8734493,122678,116508
1766327388.8844032,122599,116437
1766327388.8953557,122745,116533
1766327388.9063067,122745,116533
1766327388.9172633,122593,116405
1766327388.9282415,122761,116556
1766327388.9391942,122761,116556
1766327388.9501452,122761,116556
1766327388.9610963,122637,116437
1766327388.972086,122822,116559
1766327388.9830394,122822,116559
1766327388.9939935,122822,116559
1766327389.0049462,122725,116458
1766327389.0159075,122825,116567
1766327389.0268598,122825,116567
1766327389.037812,122756,116509
1766327389.048764,122591,116451
1766327389.0597148,122591,116451
1766327389.0706875,122591,116451
1766327389.081643,122789,116491
1766327389.0925953,122322,116351
1766327389.1035466,122322,116351
1766327389.1145027,122322,116351
1766327389.1254728,122807,116507
1766327389.1364264,122198,116325
1766327389.147378,122198,116325
1766327389.1583285,122842,116507
1766327389.1693795,122222,116301
1766327389.1803367,122222,116301
1766327389.19129,122222,116301
1766327389.2022412,122880,116517
1766327389.2131937,122261,116339
1766327389.224174,122261,116339
1766327389.2351296,122863,116500
1766327389.2465317,122312,116374
1766327389.2576025,122312,116374
1766327389.2685802,122312,116374
1766327389.2795575,122916,116533
1766327389.2905135,122423,116419
1766327389.3014653,122423,116419
1766327389.312418,122423,116419
1766327389.3233852,122845,116511
1766327389.3343403,122465,116445
1766327389.3452933,122465,116445
1766327389.3562455,122594,116382
1766327389.367201,122466,116408
1766327389.378188,122466,116408
1766327389.3891425,122466,116408
1766327389.4006157,122397,116325
1766327389.4116757,122492,116427
1766327389.4226532,122492,116427
1766327389.4336102,122354,116299
1766327389.4445655,122519,116450
1766327389.4555187,122519,116450
1766327389.4664798,122519,116450
1766327389.477435,122413,116331
1766327389.4883914,122622,116475
1766327389.4993446,122622,116475
1766327389.5102975,122622,116475
1766327389.521256,122453,116351
1766327389.5322099,122652,116479
1766327389.5431628,122652,116479
1766327389.554115,122520,116350
1766327389.5650733,122739,116523
1766327389.5760422,122739,116523
1766327389.5871434,122739,116523
1766327389.5982087,122608,116400
1766327389.6092823,122809,116530
1766327389.6202643,122809,116530
1766327389.631239,122809,116530
1766327389.6421936,122575,116395
1766327389.653145,122813,116564
1766327389.6641102,122813,116564
1766327389.6750736,122596,116395
1766327389.6860287,122844,116546
1766327389.6969838,122844,116546
1766327389.7079372,122844,116546
1766327389.7189136,122637,116408
1766327389.7298708,122844,116529
1766327389.740824,122844,116529
1766327389.7517767,122669,116411
1766327389.7627316,122903,116562
1766327389.7737138,122903,116562
1766327389.7846715,122903,116562
1766327389.7956254,122751,116449
1766327389.8067086,122849,116530
1766327389.8179173,122849,116530
1766327389.829017,122849,116530
1766327389.840083,122751,116467
1766327389.8512416,122575,116395
1766327389.862324,122575,116395
1766327389.8734152,122827,116472
1766327389.8845072,122406,116353
1766327389.8955905,122406,116353
1766327389.9066613,122406,116353
1766327389.917925,122859,116486
1766327389.9290884,122396,116345
1766327389.9402285,122396,116345
1766327389.9517639,122919,116528
1766327389.9628103,122417,116384
1766327389.973827,122417,116384
1766327389.9847982,122417,116384
1766327389.9957504,122927,116502
1766327390.0067163,122483,116385
1766327390.0176802,122483,116385
1766327390.0286348,122483,116385
1766327390.0395877,122917,116498
1766327390.05054,122548,116406
1766327390.0614927,122548,116406
1766327390.072446,122897,116477
1766327390.0833983,122610,116431
1766327390.094358,122610,116431
1766327390.1053102,122610,116431
1766327390.116263,122581,116350
1766327390.127215,122599,116437
1766327390.1381662,122599,116437
1766327390.149117,122354,116260
1766327390.1600683,122593,116405
1766327390.1710596,122593,116405
1766327390.1820142,122593,116405
1766327390.1930308,122350,116264
1766327390.203988,122637,116437
1766327390.2149408,122637,116437
1766327390.225905,122637,116437
1766327390.2368603,122388,116274
1766327390.2478106,122725,116458
1766327390.2587683,122725,116458
1766327390.2697217,122404,116300
1766327390.2806742,122756,116509
1766327390.2916262,122756,116509
1766327390.3025777,122756,116509
1766327390.3135304,122497,116335
1766327390.3245003,122789,116491
1766327390.3354607,122789,116491
1766327390.346413,122789,116491
1766327390.3573868,122562,116367
1766327390.3683422,122807,116507
1766327390.379321,122807,116507
1766327390.3902755,122571,116355
1766327390.4013839,122842,116507
1766327390.4124467,122842,116507
1766327390.4234169,122842,116507
1766327390.4343736,122584,116355
1766327390.445326,122880,116517
1766327390.456278,122880,116517
1766327390.4672365,122572,116309
1766327390.4781907,122863,116500
1766327390.489142,122863,116500
1766327390.5000947,122863,116500
1766327390.511052,122662,116388
1766327390.5220106,122916,116533
1766327390.5329633,122916,116533
1766327390.5439146,122916,116533
1766327390.5548656,122738,116407
1766327390.565823,122845,116511
1766327390.576808,122845,116511
1766327390.5877664,122767,116424
1766327390.5988019,122594,116382
1766327390.609785,122594,116382
1766327390.6207557,122594,116382
1766327390.6317093,122812,116433
1766327390.642737,122397,116325
1766327390.6536925,122397,116325
1766327390.6646936,122397,116325
1766327390.6756709,122813,116418
1766327390.6866283,122354,116299
1766327390.697589,122354,116299
1766327390.7085443,122861,116451
1766327390.7195082,122413,116331
1766327390.7304738,122413,116331
1766327390.7414272,122413,116331
1766327390.7523794,122892,116458
1766327390.7633336,122453,116351
1766327390.7743242,122453,116351
1766327390.7852798,122897,116440
1766327390.796233,122520,116350
1766327390.807185,122520,116350
1766327390.8181484,122520,116350
1766327390.8291018,122916,116462
1766327390.840054,122608,116400
1766327390.8510067,122608,116400
1766327390.8619587,122608,116400
1766327390.872916,122726,116360
1766327390.8838675,122575,116395
1766327390.894819,122575,116395
1766327390.9057703,122422,116283
1766327390.9167252,122596,116395
1766327390.9276764,122596,116395
1766327390.938627,122596,116395
1766327390.9495783,122330,116219
1766327390.9605293,122637,116408
1766327390.9715016,122637,116408
1766327390.982466,122637,116408
1766327390.993419,122357,116240
1766327391.0043726,122669,116411
1766327391.0153315,122669,116411
1766327391.0263019,122375,116244
1766327391.0372543,122751,116449
1766327391.0482059,122751,116449
1766327391.059157,122751,116449
1766327391.0701175,122446,116263
1766327391.081244,122751,116467
1766327391.0923266,122751,116467
1766327391.1034038,122492,116275
1766327391.114423,122827,116472
1766327391.1253977,122827,116472
1766327391.136355,122827,116472
1766327391.147309,122540,116305
1766327391.1582649,122859,116486
1766327391.1692421,122859,116486
1766327391.18023,122859,116486
1766327391.1911855,122520,116298
1766327391.2021377,122919,116528
1766327391.2130928,122919,116528
1766327391.22406,122546,116323
1766327391.2350142,122927,116502
1766327391.2459655,122927,116502
1766327391.2569182,122927,116502
1766327391.2678833,122593,116326
1766327391.2788396,122917,116498
1766327391.2897997,122917,116498
1766327391.3007545,122917,116498
1766327391.3117075,122917,116498
1766327391.3226712,122897,116477
1766327391.3336256,122897,116477
1766327391.3445773,122706,116362
1766327391.355529,122581,116350
1766327391.3664863,122581,116350
1766327391.3774803,122581,116350
1766327391.3884456,122747,116380
1766327391.3994527,122354,116260
1766327391.4105165,122354,116260
1766327391.42149,122799,116408
1766327391.4324465,122350,116264
1766327391.4433985,122350,116264
1766327391.454351,122350,116264
1766327391.4653113,122826,116401
1766327391.4762654,122388,116274
1766327391.4872162,122388,116274
1766327391.498168,122388,116274
1766327391.5091193,122832,116405
1766327391.5200782,122404,116300
1766327391.5310335,122404,116300
1766327391.541986,122863,116419
1766327391.552954,122497,116335
1766327391.5639124,122497,116335
1766327391.5748947,122497,116335
1766327391.58585,122885,116423
1766327391.5968857,122562,116367
1766327391.6078491,122562,116367
1766327391.6188207,122562,116367
1766327391.6297786,122571,116355
1766327391.640731,122571,116355
1766327391.6517787,122571,116355
1766327391.662732,122911,116420
1766327391.6736958,122584,116355
1766327391.6846519,122584,116355
1766327391.6956012,122584,116355
1766327391.7065556,122737,116353
1766327391.7175148,122572,116309
1766327391.728505,122572,116309
1766327391.7394586,122470,116256
1766327391.7504113,122662,116388
1766327391.7613654,122662,116388
1766327391.7723598,122662,116388
1766327391.7833223,122351,116190
1766327391.794275,122738,116407
1766327391.805226,122738,116407
1766327391.8161898,122738,116407
1766327391.827141,122337,116202
1766327391.8380923,122767,116424
1766327391.8490431,122767,116424
1766327391.8599942,122391,116222
1766327391.8709545,122812,116433
1766327391.8819077,122812,116433
1766327391.8928592,122812,116433
1766327391.9038093,122455,116240
1766327391.914765,122813,116418
1766327391.9257166,122813,116418
1766327391.9366684,122813,116418
1766327391.947619,122813,116418
1766327391.9585698,122861,116451
1766327391.969524,122861,116451
1766327391.9805021,122544,116282
1766327391.991454,122892,116458
1766327392.0024052,122892,116458
1766327392.0133557,122892,116458
1766327392.0243456,122538,116274
1766327392.035434,122897,116440
1766327392.0464368,122897,116440
1766327392.057393,122578,116281
1766327392.0683615,122916,116462
1766327392.0793295,122916,116462
1766327392.0902824,122916,116462
1766327392.1012325,122609,116287
1766327392.1121876,122726,116360
1766327392.1231465,122726,116360
1766327392.1340973,122726,116360
1766327392.1450524,122665,116320
1766327392.1560047,122422,116283
1766327392.1669621,122422,116283
1766327392.1779535,122728,116332
1766327392.1889086,122330,116219
1766327392.1998594,122330,116219
1766327392.210811,122330,116219
1766327392.221773,122766,116350
1766327392.2327313,122357,116240
1766327392.2436867,122357,116240
1766327392.2546391,122357,116240
1766327392.2656,122357,116240
1766327392.2765543,122375,116244
1766327392.2875054,122375,116244
1766327392.298457,122823,116374
1766327392.3094084,122446,116263
1766327392.3203661,122446,116263
1766327392.3313172,122446,116263
1766327392.3422713,122847,116372
1766327392.3532295,122492,116275
1766327392.3641906,122492,116275
1766327392.3751686,122853,116358
1766327392.3861344,122540,116305
1766327392.397102,122540,116305
1766327392.4082072,122540,116305
1766327392.419207,122886,116384
1766327392.4301853,122520,116298
1766327392.4411387,122520,116298
1766327392.4520912,122520,116298
1766327392.4630437,122850,116366
1766327392.474001,122546,116323
1766327392.4849539,122546,116323
1766327392.495905,122600,116267
1766327392.5068572,122593,116326
1766327392.5178154,122593,116326
1766327392.5287683,122593,116326
1766327392.5397205,122382,116176
1766327392.5506706,122917,116498
1766327392.5616288,122917,116498
1766327392.5726302,122917,116498
1766327392.5835905,122917,116498
1766327392.594712,122706,116362
1766327392.6056857,122706,116362
1766327392.616651,122370,116177
1766327392.627609,122747,116380
1766327392.6385648,122747,116380
1766327392.649517,122747,116380
1766327392.6604724,122411,116197
1766327392.6714299,122799,116408
1766327392.6823826,122799,116408
1766327392.6933331,122528,116251
1766327392.7042868,122826,116401
1766327392.7152474,122826,116401
1766327392.726208,122826,116401
1766327392.7371616,122562,116253
1766327392.7481153,122832,116405
1766327392.759066,122832,116405
1766327392.770026,122832,116405
1766327392.7810235,122541,116252
1766327392.7919786,122863,116419
1766327392.8029313,122863,116419
1766327392.813887,122537,116249
1766327392.8248491,122885,116423
1766327392.8358042,122885,116423
1766327392.8467557,122885,116423
1766327392.8577073,122570,116255
1766327392.8686671,122854,116400
1766327392.879623,122854,116400
1766327392.8905754,122854,116400
1766327392.901526,122854,116400
1766327392.9124804,122911,116420
1766327392.9234416,122911,116420
1766327392.934398,122688,116297
1766327392.9453502,122737,116353
1766327392.956308,122737,116353
1766327392.967394,122737,116353
1766327392.9784832,122733,116309
1766327392.9895303,122470,116256
1766327393.000489,122470,116256
1766327393.0114453,122797,116349
1766327393.0224159,122351,116190
1766327393.0333745,122351,116190
1766327393.0443277,122351,116190
1766327393.0552783,122802,116342
1766327393.066236,122337,116202
1766327393.0771925,122337,116202
1766327393.0881605,122337,116202
1766327393.099114,122790,116341
1766327393.110065,122391,116222
1766327393.1210344,122391,116222
1766327393.1319983,122844,116332
1766327393.1429522,122455,116240
1766327393.1539047,122455,116240
1766327393.1653461,122455,116240
1766327393.1763597,122868,116356
1766327393.1873133,122813,116418
1766327393.1982672,122813,116418
1766327393.2092185,122884,116358
1766327393.220286,122544,116282
1766327393.2313538,122544,116282
1766327393.2423975,122544,116282
1766327393.253428,122720,116283
1766327393.2644968,122538,116274
1766327393.2755537,122538,116274
1766327393.286591,122538,116274
1766327393.2976372,122429,116159
1766327393.3086724,122578,116281
1766327393.3197284,122578,116281
1766327393.3307858,122283,116136
1766327393.3418322,122609,116287
1766327393.3540664,122609,116287
1766327393.3651965,122609,116287
1766327393.3762999,122276,116116
1766327393.3873413,122665,116320
1766327393.3983855,122665,116320
1766327393.4096057,122265,116094
1766327393.420749,122728,116332
1766327393.4317703,122728,116332
1766327393.4427905,122728,116332
1766327393.453821,122339,116145
1766327393.4648623,122766,116350
1766327393.4759114,122766,116350
1766327393.4869301,122766,116350
1766327393.4979484,122357,116240
1766327393.508966,122357,116240
1766327393.5200248,122357,116240
1766327393.5312037,122448,116180
1766327393.542259,122823,116374
1766327393.553394,122823,116374
1766327393.5646281,122823,116374
1766327393.5758832,122453,116191
1766327393.5871642,122847,116372
1766327393.598443,122847,116372
1766327393.6095908,122451,116203
1766327393.620745,122853,116358
1766327393.6318197,122853,116358
1766327393.6429138,122853,116358
1766327393.6540432,122488,116194
1766327393.665178,122886,116384
1766327393.6762757,122886,116384
1766327393.6873584,122578,116256
1766327393.698445,122850,116366
1766327393.7095292,122850,116366
1766327393.7206373,122850,116366
1766327393.7316976,122614,116237
1766327393.742841,122600,116267
1766327393.7540643,122600,116267
1766327393.7651584,122600,116267
1766327393.7762337,122382,116176
1766327393.787307,122382,116176
1766327393.7982743,122382,116176
1766327393.809227,122694,116273
1766327393.8201947,122917,116498
1766327393.8311732,122917,116498
1766327393.8421273,122917,116498
1766327393.8530803,122725,116277
1766327393.8640463,122370,116177
1766327393.8750062,122370,116177
1766327393.8859599,122735,116299
1766327393.896913,122411,116197
1766327393.9078643,122411,116197
1766327393.918825,122411,116197
1766327393.9297795,122776,116285
1766327393.9407322,122528,116251
1766327393.9516833,122528,116251
1766327393.9626346,122528,116251
1766327393.9736128,122762,116300
1766327393.984571,122562,116253
1766327393.9955223,122562,116253
1766327394.0064752,122804,116266
1766327394.0174348,122541,116252
1766327394.028389,122541,116252
1766327394.0393407,122541,116252
1766327394.0502923,122556,116178
1766327394.0612435,122537,116249
1766327394.0722024,122537,116249
1766327394.0831547,122537,116249
1766327394.0941079,122570,116255
1766327394.105059,122570,116255
1766327394.1160157,122570,116255
1766327394.12697,122200,116050
1766327394.1379209,122854,116400
1766327394.1488717,122854,116400
1766327394.1598222,122854,116400
1766327394.1707954,122202,116042
1766327394.1817703,122688,116297
1766327394.192739,122688,116297
1766327394.2036915,122253,116090
1766327394.2146585,122733,116309
1766327394.2256396,122733,116309
1766327394.236597,122733,116309
1766327394.2475512,122284,116092
1766327394.2585664,122797,116349
1766327394.2696087,122797,116349
1766327394.2805688,122797,116349
1766327394.2915232,122339,116115
1766327394.3024764,122802,116342
1766327394.3134346,122802,116342
1766327394.3243961,122387,116105
1766327394.3353503,122790,116341
1766327394.3463027,122790,116341
1766327394.3572547,122790,116341
1766327394.3682168,122394,116118
1766327394.3791835,122844,116332
1766327394.3901365,122844,116332
1766327394.4011884,122844,116332
1766327394.412256,122868,116356
1766327394.4232478,122868,116356
1766327394.4342697,122868,116356
1766327394.445229,122458,116146
1766327394.4561827,122884,116358
1766327394.4671454,122884,116358
1766327394.478106,122884,116358
1766327394.4890544,122530,116188
1766327394.5000088,122720,116283
1766327394.5109618,122720,116283
1766327394.5219162,122565,116193
1766327394.5328922,122429,116159
1766327394.5438457,122429,116159
1766327394.5547976,122429,116159
1766327394.5657492,122630,116207
1766327394.5767174,122283,116136
1766327394.58768,122283,116136
1766327394.5987139,122283,116136
1766327394.609686,122628,116220
1766327394.6206484,122276,116116
1766327394.6316013,122276,116116
1766327394.6425543,122693,116193
1766327394.6535065,122265,116094
1766327394.6644614,122265,116094
1766327394.6754143,122265,116094
1766327394.6863656,122709,116239
1766327394.6973214,122339,116145
1766327394.7082758,122339,116145
1766327394.7192287,122339,116266
1766327394.7301936,122386,116134
1766327394.7411473,122386,116134
1766327394.7520998,122386,116134
1766327394.7630534,122757,116259
1766327394.7740166,122448,116180
1766327394.7849753,122448,116180
1766327394.7959304,122448,116180
1766327394.8068826,122790,116268
1766327394.8178384,122453,116191
1766327394.8287902,122453,116191
1766327394.839742,122772,116267
1766327394.8506932,122451,116203
1766327394.8616467,122451,116203
1766327394.8726072,122451,116203
1766327394.883575,122505,116129
1766327394.894527,122488,116194
1766327394.9054792,122488,116194
1766327394.9164317,122488,116194
1766327394.927382,122229,116024
1766327394.9383335,122578,116256
1766327394.9492836,122578,116256
1766327394.9602375,122194,115979
1766327394.9711902,122614,116237
1766327394.98215,122614,116237
1766327394.993102,122614,116237
1766327395.0040538,122208,116021
1766327395.0150096,122626,116227
1766327395.0259612,122626,116227
1766327395.0369143,122626,116227
1766327395.0478668,122694,116273
1766327395.0588176,122694,116273
1766327395.0697696,122694,116273
1766327395.0807214,122303,116058
1766327395.0916722,122725,116277
1766327395.1026227,122725,116277
1766327395.1135747,122725,116277
1766327395.1245272,122370,116087
1766327395.1354775,122735,116299
1766327395.146428,122735,116299
1766327395.1573787,122388,116093
1766327395.16833,122776,116285
1766327395.1793122,122776,116285
1766327395.1903162,122776,116285
1766327395.2012756,122376,116085
1766327395.212233,122762,116300
1766327395.2231886,122762,116300
1766327395.2341757,122762,116300
1766327395.2451308,122391,116091
1766327395.2560835,122804,116266
1766327395.2670398,122804,116266
1766327395.2779918,122456,116138
1766327395.2889426,122556,116178
1766327395.299894,122556,116178
1766327395.31085,122556,116178
1766327395.3218036,122515,116133
1766327395.3327563,122269,116054
1766327395.3437076,122269,116054
1766327395.354658,122269,116054
1766327395.3656344,122543,116138
1766327395.3766088,122200,116050
1766327395.3875587,122200,116050
1766327395.3985121,122602,116177
1766327395.4095888,122202,116042
1766327395.4205883,122202,116042
1766327395.4316087,122202,116042
1766327395.442567,122629,116187
1766327395.4535189,122253,116090
1766327395.4644778,122253,116090
1766327395.4754288,122681,116205
1766327395.48638,122284,116092
1766327395.4973307,122284,116092
1766327395.5082824,122284,116092
1766327395.5192358,122674,116191
1766327395.5302117,122339,116115
1766327395.5411663,122339,116115
1766327395.5521183,122339,116115
1766327395.5630703,122683,116206
1766327395.5740254,122387,116105
1766327395.5850077,122387,116105
1766327395.5961103,122723,116227
1766327395.607077,122394,116118
1766327395.6180406,122394,116118
1766327395.6289973,122394,116118
1766327395.6400087,122751,116222
1766327395.651076,122408,116115
1766327395.6620321,122408,116115
1766327395.6729898,122408,116115
1766327395.6839478,122458,116146
1766327395.6948996,122458,116146
1766327395.705855,122458,116146
1766327395.7168088,122346,116049
1766327395.7277687,122530,116188
1766327395.7387264,122530,116188
1766327395.7496784,122530,116188
1766327395.7606297,122200,115993
1766327395.7715878,122565,116193
1766327395.7825577,122565,116193
1766327395.7935107,122229,116019
1766327395.8044627,122630,116207
1766327395.8154128,122630,116207
1766327395.8263686,122630,116207
1766327395.8373208,122258,116020
1766327395.8482735,122628,116220
1766327395.859224,122628,116220
1766327395.8701766,122628,116220
1766327395.8811288,122289,116027
1766327395.8920798,122693,116193
1766327395.9030306,122693,116193
1766327395.9139812,122400,116079
1766327395.9249482,122709,116239
1766327395.9359076,122709,116239
1766327395.9468603,122709,116239
1766327395.9578123,122424,116077
1766327395.9687655,122766,116266
1766327395.9797409,122766,116266
1766327395.990696,122766,116266
1766327396.0016496,122766,116266
1766327396.0126047,122757,116259
1766327396.0235581,122757,116259
1766327396.0345106,122417,116074
1766327396.0454624,122790,116268
1766327396.0564156,122790,116268
1766327396.0673664,122790,116268
1766327396.0783184,122460,116087
1766327396.089269,122772,116267
1766327396.1002207,122772,116267
1766327396.111171,122511,116106
1766327396.1221228,122505,116129
1766327396.1330729,122505,116129
1766327396.144028,122505,116129
1766327396.1549795,122562,116126
1766327396.1659327,122229,116024
1766327396.176907,122229,116024
1766327396.1878676,122229,116024
1766327396.1988206,122620,116144
1766327396.2097719,122194,115979
1766327396.220726,122194,115979
1766327396.2316854,122646,116181
1766327396.2426422,122208,116021
1766327396.2535944,122208,116021
1766327396.2645593,122208,116021
1766327396.2756283,122656,116163
1766327396.2865875,122199,115992
1766327396.2975402,122199,115992
1766327396.308495,122199,115992
1766327396.319454,122658,116157
1766327396.3304088,122303,116058
1766327396.34137,122303,116058
1766327396.3523235,122702,116178
1766327396.363278,122370,116087
1766327396.3742344,122370,116087
1766327396.3851993,122370,116087
1766327396.3961663,122718,116182
1766327396.407247,122388,116093
1766327396.4182947,122388,116093
1766327396.4292507,122697,116175
1766327396.440206,122376,116085
1766327396.4511607,122376,116085
1766327396.4621131,122376,116085
1766327396.4730651,122488,116087
1766327396.4840207,122391,116091
1766327396.4949722,122391,116091
1766327396.5059235,122391,116091
1766327396.5168772,122239,115962
1766327396.5278275,122456,116138
1766327396.5387778,122456,116138
1766327396.5497282,122175,115967
1766327396.5607026,122515,116133
1766327396.5716581,122515,116133
1766327396.582629,122515,116133
1766327396.5937119,122191,115966
1766327396.604701,122543,116138
1766327396.6157348,122543,116138
1766327396.6268554,122543,116138
1766327396.6379247,122602,116177
1766327396.649001,122602,116177
1766327396.660066,122602,116177
1766327396.6710472,122315,116010
1766327396.6820066,122629,116187
1766327396.6929634,122629,116187
1766327396.703916,122629,116187
1766327396.7148752,122385,116033
1766327396.7258282,122681,116205
1766327396.7367868,122681,116205
1766327396.747739,122352,116016
1766327396.7586913,122674,116191
1766327396.769653,122674,116191
1766327396.7806215,122674,116191
1766327396.7915733,122383,116036
1766327396.8025246,122683,116206
1766327396.813476,122683,116206
1766327396.8244376,122683,116206
1766327396.8353891,122384,116038
1766327396.8463445,122723,116227
1766327396.8572972,122723,116227
1766327396.868255,122462,116023
1766327396.8792086,122751,116222
1766327396.8901615,122751,116222
1766327396.9011126,122751,116222
1766327396.912064,122512,116088
1766327396.923021,122656,116169
1766327396.9339738,122656,116169
1766327396.9449248,122656,116108
1766327396.9558756,122346,116049
1766327396.9668324,122346,116049
1766327396.9778063,122346,116049
1766327396.988761,122612,116118
1766327396.999712,122200,115993
1766327397.0106637,122200,115993
1766327397.0217073,122200,115993
1766327397.0326688,122635,116127
1766327397.043697,122229,116019
1766327397.0546544,122229,116019
1766327397.0656242,122646,116131
1766327397.0765796,122258,116020
1766327397.0875309,122258,116020
1766327397.0984826,122258,116020
1766327397.1094337,122672,116128
1766327397.1203978,122289,116027
1766327397.131351,122289,116027
1766327397.1423028,122289,116027
1766327397.1532547,122656,116147
1766327397.1642137,122400,116079
1766327397.1751816,122400,116079
1766327397.1861494,122718,116136
1766327397.1971025,122424,116077
1766327397.208054,122424,116077
1766327397.219019,122424,116077
1766327397.2299807,122633,116104
1766327397.2409356,122766,116266
1766327397.2518883,122766,116266
1766327397.262844,122766,115984
1766327397.2738094,122417,116074
1766327397.2847624,122417,116074
1766327397.2957144,122417,116074
1766327397.306666,122123,115902
1766327397.3176231,122460,116087
1766327397.3285985,122460,116087
1766327397.3395522,122460,116087
1766327397.3505037,122100,115899
1766327397.3614593,122511,116106
1766327397.3724189,122511,116106
1766327397.3836215,122103,115923
1766327397.3947737,122562,116126
1766327397.4059331,122562,116126
1766327397.4170032,122562,116126
1766327397.4280965,122131,115913
1766327397.4392018,122620,116144
1766327397.4502938,122620,116144
1766327397.463029,122172,115938
1766327397.4741347,122646,116181
1766327397.4852276,122646,116181
1766327397.496306,122646,116181
1766327397.507486,122255,115965
1766327397.5212145,122656,116163
1766327397.532286,122656,116163
1766327397.543378,122264,115953
1766327397.554347,122658,116157
1766327397.5653052,122658,116157
1766327397.576269,122658,116157
1766327397.5872407,122258,115972
1766327397.5982735,122702,116178
1766327397.6092436,122702,116178
1766327397.620204,122702,116178
1766327397.6311617,122702,116178
1766327397.642117,122718,116182
1766327397.6530695,122718,116182
1766327397.6640236,122358,116007
1766327397.6749785,122697,116175
1766327397.6859505,122697,116175
1766327397.6969097,122697,116175
1766327397.707862,122424,116027
1766327397.7188194,122488,116087
1766327397.7297738,122488,116087
1766327397.740728,122478,116027
1766327397.75168,122239,115962
1766327397.7626362,122239,115962
1766327397.773595,122239,115962
1766327397.7845616,122536,116063
1766327397.7955148,122175,115967
1766327397.806467,122175,115967
1766327397.8174226,122175,115967
1766327397.828376,122589,116071
1766327397.8393283,122191,115966
1766327397.8502805,122191,115966
1766327397.861233,122598,116116
1766327397.8722136,122207,115949
1766327397.8831782,122207,115949
1766327397.8941317,122207,115949
1766327397.9050872,122627,116094
1766327397.9160416,122315,116010
1766327397.926994,122315,116010
1766327397.9379468,122315,116010
1766327397.9488995,122627,116105
1766327397.959852,122385,116033
1766327397.9708047,122385,116033
1766327397.9817684,122651,116108
1766327397.9927225,122352,116016
1766327398.0036736,122352,116016
1766327398.0146255,122352,116016
1766327398.0255823,122401,115994
1766327398.0365553,122383,116036
1766327398.047509,122383,116036
1766327398.0584633,122088,115868
1766327398.0694165,122384,116038
1766327398.080371,122384,116038
1766327398.091323,122384,116038
1766327398.1022754,122056,115864
1766327398.1132278,122462,116023
1766327398.1241813,122462,116023
1766327398.1351328,122462,116023
1766327398.146084,122085,115861
1766327398.157051,122512,116088
1766327398.168062,122512,116088
1766327398.179033,122060,115865
1766327398.1899993,122583,116108
1766327398.2009552,122583,116108
1766327398.2119083,122583,116108
1766327398.2228658,122137,115900
1766327398.2338269,122612,116118
1766327398.244781,122612,116118
1766327398.2557333,122612,116118
1766327398.2666924,122229,115954
1766327398.2776477,122635,116127
1766327398.2886217,122635,116127
1766327398.2996671,122243,115943
1766327398.3106287,122646,116131
1766327398.3215852,122646,116131
1766327398.3325412,122646,116131
1766327398.343496,122236,115930
1766327398.3544488,122672,116128
1766327398.3654032,122672,116128
1766327398.3763618,122232,115916
1766327398.3873487,122656,116147
1766327398.3983166,122656,116147
1766327398.4093895,122656,116147
1766327398.420434,122320,115966
1766327398.4314454,122718,116136
1766327398.4424057,122718,116136
1766327398.45336,122718,116136
1766327398.4643183,122402,115994
1766327398.4752758,122633,116104
1766327398.4862316,122633,116104
1766327398.4971848,122449,116043
1766327398.508138,122313,115984
1766327398.5190938,122313,115984
1766327398.5300467,122313,115984
1766327398.5410006,122495,116025
1766327398.551952,122123,115902
1766327398.562904,122123,115902
1766327398.573857,122123,115902
1766327398.5848284,122518,116046
1766327398.595922,122100,115899
1766327398.6068885,122100,115899
1766327398.6178577,122562,116054
1766327398.6288168,122103,115923
1766327398.6397724,122103,115923
1766327398.6507256,122103,115923
1766327398.6616788,122608,116068
1766327398.672633,122131,115913
1766327398.6835847,122131,115913
1766327398.6945355,122628,116057
1766327398.7054915,122172,115938
1766327398.7164452,122172,115938
1766327398.7274532,122172,115938
1766327398.7385159,122652,116083
1766327398.7495577,122255,115965
1766327398.7605948,122255,115965
1766327398.771642,122255,115965
1766327398.7826943,122543,116039
1766327398.7937317,122264,115953
1766327398.804769,122264,115953
1766327398.815809,122264,115896
1766327398.826875,122258,115972
1766327398.8379142,122258,115972
1766327398.8489509,122258,115972
1766327398.859992,122114,115846
1766327398.8710282,122702,116178
1766327398.882063,122702,116178
1766327398.893127,122074,115835
1766327398.9041846,122358,116007
1766327398.9152205,122358,116007
1766327398.9262543,122358,116007
1766327398.937314,122138,115868
1766327398.948351,122424,116027
1766327398.9593883,122424,116027
1766327398.9704254,122424,116027
1766327398.981471,122167,115903
1766327398.992509,122478,116027
1766327399.0035498,122478,116027
1766327399.0145833,122279,115912
1766327399.0256193,122536,116063
1766327399.0366786,122536,116063
1766327399.047717,122536,116063
1766327399.0587668,122321,115947
1766327399.0698068,122589,116071
1766327399.080868,122589,116071
1766327399.0919063,122285,115914
1766327399.102943,122598,116116
1766327399.113978,122598,116116
1766327399.1250126,122598,116116
1766327399.1360686,122322,115942
1766327399.1471057,122627,116094
1766327399.15814,122627,116094
1766327399.1691778,122627,116094
1766327399.1802335,122323,115958
1766327399.1912777,122627,116105
1766327399.2023141,122627,116105
1766327399.2133563,122415,115963
1766327399.224396,122651,116108
1766327399.2354383,122651,116108
1766327399.2465048,122651,116108
1766327399.2575393,122476,115995
1766327399.2685826,122401,115994
1766327399.2796202,122401,115994
1766327399.2906551,122477,115986
1766327399.301687,122088,115868
1766327399.3127358,122088,115868
1766327399.3237689,122088,115868
1766327399.3348043,122527,116021
1766327399.3458657,122056,115864
1766327399.3569045,122056,115864
1766327399.3679438,122056,115864
1766327399.3789835,122517,116028
1766327399.3900273,122085,115861
1766327399.4011464,122085,115861
1766327399.412403,122573,116007
1766327399.4235952,122060,115865
1766327399.4346762,122060,115865
1766327399.4458246,122060,115865
1766327399.456844,122610,116048
1766327399.4678843,122137,115900
1766327399.4788961,122137,115900
1766327399.489905,122660,116084
1766327399.5009117,122229,115954
1766327399.5119152,122229,115954
1766327399.5229332,122229,115954
1766327399.5339415,122564,116010
1766327399.5449467,122243,115943
1766327399.556,122243,115943
1766327399.5670512,122243,115943
1766327399.578094,122274,115905
1766327399.5891562,122236,115930
1766327399.6003504,122236,115930
1766327399.6115518,122088,115822
1766327399.6227472,122232,115916
1766327399.6338987,122232,115916
1766327399.645048,122232,115916
1766327399.6562889,122079,115817
1766327399.6673994,122320,115966
1766327399.6783836,122320,115966
1766327399.689359,122065,115817
1766327399.7003345,122402,115994
1766327399.7113113,122402,115994
1766327399.722301,122402,115994
1766327399.7332778,122145,115852
1766327399.7442715,122449,116043
1766327399.7552917,122449,116043
1766327399.7663395,122449,116043
1766327399.7773635,122212,115869
1766327399.7884178,122495,116025
1766327399.7994397,122495,116025
1766327399.8104587,122282,115902
1766327399.821506,122518,116046
1766327399.8325303,122518,116046
1766327399.8435476,122518,116046
1766327399.8545675,122274,115898
1766327399.8656144,122562,116054
1766327399.8766558,122562,116054
1766327399.8876982,122274,115899
1766327399.8987336,122608,116068
1766327399.909766,122608,116068
1766327399.9208274,122608,116068
1766327399.9318764,122313,115926
1766327399.942913,122628,116057
1766327399.953948,122628,116057
1766327399.9650002,122628,116057
1766327399.9760427,122361,115934
1766327399.9870894,122652,116083
1766327399.998126,122652,116083
1766327400.0091622,122431,115965
1766327400.0202174,122543,116039
1766327400.0312638,122543,116039
1766327400.0422986,122543,116039
1766327400.0533345,122474,115978
1766327400.0643864,122264,115896
1766327400.0754385,122264,115896
1766327400.0864768,122484,115977
1766327400.0975144,122114,115846
1766327400.1085505,122114,115846
1766327400.1196103,122114,115846
1766327400.130651,122524,115996
1766327400.14172,122074,115835
1766327400.1527603,122074,115835
1766327400.1638105,122074,115835
1766327400.1748662,122517,115991
1766327400.1859236,122138,115868
1766327400.1970012,122138,115868
1766327400.2080424,122571,116005
1766327400.2191062,122167,115903
1766327400.2301443,122167,115903
1766327400.2411878,122167,115903
1766327400.2522273,122600,116020
1766327400.2632675,122279,115912
1766327400.274331,122279,115912
1766327400.2853703,122568,115993
1766327400.2964094,122321,115947
1766327400.3074532,122321,115947
1766327400.3185074,122321,115947
1766327400.3296535,122351,115905
1766327400.3407779,122285,115914
1766327400.3518279,122285,115914
1766327400.362866,122285,115914
1766327400.373954,122322,115942
1766327400.3850188,122322,115942
1766327400.3960793,122322,115942
1766327400.4074214,121991,115760
1766327400.4186304,122323,115958
1766327400.4297826,122323,115958
1766327400.4408445,122323,115958
1766327400.4518876,121987,115762
1766327400.4629378,122415,115963
1766327400.47408,122415,115963
1766327400.485105,122003,115762
1766327400.4961836,122476,115995
1766327400.5072074,122476,115995
1766327400.518232,122476,115995
1766327400.5292556,122067,115798
1766327400.5403674,122477,115986
1766327400.5514016,122477,115986
1766327400.562421,122122,115813
1766327400.5735228,122527,116021
1766327400.5845947,122527,116021
1766327400.595841,122527,116021
1766327400.6069145,122173,115843
1766327400.617959,122517,116028
1766327400.6290014,122517,116028
1766327400.6401324,122517,116028
1766327400.6511822,122145,115839
1766327400.6622255,122573,116007
1766327400.673272,122573,116007
1766327400.6843903,122190,115827
1766327400.6954186,122610,116048
1766327400.7064404,122610,116048
1766327400.7174616,122610,116048
1766327400.7284818,122242,115864
1766327400.7395022,122660,116084
1766327400.750523,122660,116084
1766327400.7615433,122304,115889
1766327400.7725785,122564,116010
1766327400.783684,122564,116010
1766327400.794733,122564,116010
1766327400.805771,122363,115915
1766327400.816811,122274,115905
1766327400.8278491,122274,115905
1766327400.8388836,122274,115905
1766327400.8499565,122406,115934
1766327400.8609958,122088,115822
1766327400.8720386,122088,115822
1766327400.8831186,122440,115925
1766327400.8941965,122079,115817
1766327400.9052367,122079,115817
1766327400.916277,122079,115817
1766327400.9273162,122462,115939
1766327400.938355,122065,115817
1766327400.949392,122065,115817
1766327400.9604282,122500,115977
1766327400.971472,122145,115852
1766327400.982518,122145,115852
1766327400.9935846,122145,115852
1766327401.0046263,122522,115966
1766327401.0156658,122212,115869
1766327401.0266986,122212,115869
1766327401.0377352,122212,115869
1766327401.0487714,122571,115992
1766327401.059811,122282,115902
1766327401.0708532,122282,115902
1766327401.0818896,122458,115927
1766327401.092924,122274,115898
1766327401.1040156,122274,115898
1766327401.1152403,122274,115898
1766327401.1263864,122140,115783
1766327401.1375086,122274,115899
1766327401.148747,122274,115899
1766327401.159988,121958,115724
1766327401.1712513,122313,115926
1766327401.1824844,122313,115926
1766327401.1936452,122313,115926
1766327401.204697,121934,115713
1766327401.2157385,122361,115934
1766327401.2268178,122361,115934
1766327401.237932,121953,115732
1766327401.2491076,122431,115965
1766327401.2603297,122431,115965
1766327401.271633,122431,115965
1766327401.2827616,121983,115739
1766327401.2939086,122474,115978
1766327401.3050594,122474,115978
1766327401.316137,122474,115978
1766327401.3272073,122102,115796
1766327401.3382857,122484,115977
1766327401.349247,122484,115977
1766327401.360214,122125,115808
1766327401.371176,122524,115996
1766327401.3821497,122524,115996
1766327401.3931165,122524,115996
1766327401.4041195,122132,115806
1766327401.4151838,122517,115991
1766327401.426145,122517,115991
1766327401.4371054,122126,115803
1766327401.4480593,122571,116005
1766327401.4590175,122571,116005
1766327401.469977,122571,116005
1766327401.4809318,122190,115833
1766327401.4918857,122600,116020
1766327401.502915,122600,116020
1766327401.5138843,122600,116020
1766327401.524844,122256,115855
1766327401.5357995,122568,115993
1766327401.5467682,122568,115993
1766327401.5577292,122314,115885
1766327401.5686958,122351,115905
1766327401.5796576,122351,115905
1766327401.5907607,122351,115905
1766327401.6017928,122368,115892
1766327401.61276,122040,115764
1766327401.623722,122040,115764
1766327401.6346774,122040,115764
1766327401.6456325,121991,115760
1766327401.6565857,121991,115760
1766327401.6675403,121991,115760
1766327401.6784935,122433,115908
1766327401.6894457,121987,115762
1766327401.7003996,121987,115762
1766327401.7113528,121987,115762
1766327401.7223065,122449,115924
1766327401.7332613,122003,115762
1766327401.7442133,122003,115762
1766327401.7551694,122499,115947
1766327401.7661235,122067,115798
1766327401.7770798,122067,115798
1766327401.788049,122067,115798
1766327401.799002,122508,115946
1766327401.8099546,122122,115813
1766327401.8209093,122122,115813
1766327401.831859,122122,115813
1766327401.8428166,122531,115954
1766327401.8537703,122173,115843
1766327401.8647244,122173,115843
1766327401.8756773,122426,115925
1766327401.8866303,122145,115839
1766327401.8975995,122145,115839
1766327401.9085534,122145,115839
1766327401.9195075,122115,115765
1766327401.9304583,122190,115827
1766327401.9414108,122190,115827
1766327401.952363,122190,115827
1766327401.9633183,121922,115692
1766327401.9742734,122242,115864
1766327401.9852352,122242,115864
1766327401.996191,121955,115716
1766327402.0071433,122304,115889
1766327402.0180976,122304,115889
1766327402.0291202,122304,115889
1766327402.0400815,121977,115724
1766327402.051115,122363,115915
1766327402.062075,122363,115915
1766327402.0730512,122038,115741
1766327402.0840054,122406,115934
1766327402.0949576,122406,115934
1766327402.1059096,122406,115934
1766327402.1168637,122143,115792
1766327402.1278155,122440,115925
1766327402.1387677,122440,115925
1766327402.1497197,122440,115925
1766327402.1606731,122211,115813
1766327402.171627,122462,115939
1766327402.1825943,122462,115939
1766327402.1935606,122167,115836
1766327402.204515,122500,115977
1766327402.2154696,122500,115977
1766327402.2264225,122500,115977
1766327402.237377,122185,115812
1766327402.2483516,122522,115966
1766327402.2593071,122522,115966
1766327402.2702644,122522,115966
1766327402.2812183,122211,115823
1766327402.2921703,122571,115992
1766327402.3031223,122571,115992
1766327402.3140755,122299,115846
1766327402.3250458,122458,115927
1766327402.3360004,122458,115927
1766327402.3469543,122458,115927
1766327402.3579075,122360,115874
1766327402.368862,122140,115783
1766327402.379821,122140,115783
1766327402.3907804,122365,115862
1766327402.4017448,121958,115724
1766327402.4129477,121958,115724
1766327402.4240406,121958,115724
1766327402.4350047,122444,115912
1766327402.4459581,121934,115713
1766327402.4569137,121934,115713
1766327402.4678812,121934,115713
1766327402.47884,122447,115912
1766327402.489794,121953,115732
1766327402.5007486,121953,115732
1766327402.5117688,122501,115918
1766327402.5227392,121983,115739
1766327402.533694,121983,115739
1766327402.5446653,121983,115739
1766327402.5556211,122517,115926
1766327402.5665836,122102,115796
1766327402.577539,122102,115796
1766327402.5885065,122102,115796
1766327402.599587,122125,115808
1766327402.6105509,122125,115808
1766327402.6215265,122125,115808
1766327402.6324883,122533,115927
1766327402.6434524,122132,115806
1766327402.6544297,122132,115806
1766327402.665472,122132,115806
1766327402.6764333,122293,115836
1766327402.6873875,122126,115803
1766327402.6983423,122126,115803
1766327402.709297,122043,115750
1766327402.7202668,122190,115833
1766327402.7313101,122190,115833
1766327402.7422729,122190,115833
1766327402.7532272,121992,115702
1766327402.764215,122256,115855
1766327402.7751927,122256,115855
1766327402.786168,122256,115855
1766327402.7971241,121965,115724
1766327402.8080778,122314,115885
1766327402.8190448,122314,115885
1766327402.8300014,122063,115724
1766327402.8409555,122368,115892
1766327402.851907,122368,115892
1766327402.8628595,122368,115892
1766327402.873819,122159,115787
1766327402.884774,122392,115882
1766327402.8957267,122392,115882
1766327402.9066787,122392,115882
1766327402.9176383,122433,115908
1766327402.9285922,122433,115908
1766327402.9395452,122433,115908
1766327402.9505208,122200,115806
1766327402.9614744,122449,115924
1766327402.9724336,122449,115924
1766327402.983431,122449,115924
1766327402.9945288,122196,115797
1766327403.0055912,122499,115947
1766327403.0166454,122499,115947
1766327403.0277088,122203,115807
1766327403.038666,122508,115946
1766327403.0496216,122508,115946
1766327403.0606809,122508,115946
1766327403.071653,122257,115842
1766327403.082611,122531,115954
1766327403.0935667,122531,115954
1766327403.1045218,122531,115954
1766327403.115479,122333,115878
1766327403.126436,122426,115925
1766327403.1373887,122426,115925
1766327403.1483521,122342,115860
1766327403.159306,122115,115765
1766327403.1703367,122115,115765
1766327403.181325,122115,115765
1766327403.1923008,122384,115879
1766327403.2032561,121922,115692
1766327403.2142189,121922,115692
1766327403.225181,122372,115893
1766327403.2361374,121955,115716
1766327403.2470918,121955,115716
1766327403.2580442,121955,115716
1766327403.2690163,122428,115900
1766327403.2799768,121977,115724
1766327403.290942,121977,115724
1766327403.3019202,121977,115724
1766327403.3128796,122447,115904
1766327403.3239205,122038,115741
1766327403.334882,122038,115741
1766327403.345841,122427,115887
1766327403.3567967,122143,115792
1766327403.3677611,122143,115792
1766327403.37872,122143,115792
1766327403.389702,122433,115887
1766327403.4006712,122211,115813
1766327403.4118,122211,115813
1766327403.422855,122211,115813
1766327403.43382,122141,115766
1766327403.4452767,122167,115836
1766327403.4563327,122167,115836
1766327403.4673073,121881,115663
1766327403.47827,122185,115812
1766327403.4892251,122185,115812
1766327403.5001845,122185,115812
1766327403.5111377,121807,115633
1766327403.522094,122211,115823
1766327403.5330472,122211,115823
1766327403.544001,121801,115665
1766327403.55496,122299,115846
1766327403.56592,122299,115846
1766327403.576876,122299,115846
1766327403.5878472,121811,115656
1766327403.5988781,122360,115874
1766327403.609843,122360,115874
1766327403.620804,122360,115874
1766327403.6318817,121849,115675
1766327403.642838,122365,115862
1766327403.6538668,122365,115862
1766327403.664841,121927,115666
1766327403.6757967,122444,115912
1766327403.6867492,122444,115912
1766327403.6977038,122444,115912
1766327403.7086635,121928,115693
1766327403.719619,122447,115912
1766327403.7305715,122447,115912
1766327403.7415257,122447,115707
1766327403.752479,122501,115918
1766327403.763432,122501,115918
1766327403.774391,122501,115918
1766327403.7853594,121932,115700
1766327403.7963183,122517,115926
1766327403.8072712,122517,115926
1766327403.8182266,122517,115926
1766327403.8291802,121975,115706
1766327403.840133,122511,115908
1766327403.8510847,122511,115908
1766327403.8620365,122047,115733
1766327403.8729916,122533,115927
1766327403.883947,122533,115927
1766327403.8949,122533,115927
1766327403.9058526,122093,115765
1766327403.9168084,122293,115836
1766327403.9277608,122293,115836
1766327403.9387126,122293,115836
1766327403.9496648,122123,115781
1766327403.9606173,122043,115750
1766327403.9715703,122043,115750
1766327403.9825284,122203,115780
1766327403.9934845,121992,115702
1766327404.004452,121992,115702
1766327404.0154133,121992,115702
1766327404.0263653,122238,115810
1766327404.0373182,121965,115724
1766327404.0482707,121965,115724
1766327404.059222,121965,115724
1766327404.070176,122063,115724
1766327404.0811284,122063,115724
1766327404.0920804,122063,115724
1766327404.1030328,122299,115833
1766327404.1139848,122159,115787
1766327404.1249363,122159,115787
1766327404.1358888,122159,115787
1766327404.146841,122326,115848
1766327404.1577928,122222,115821
1766327404.168746,122222,115821
1766327404.1797066,122378,115874
1766327404.1906648,122200,115806
1766327404.2016184,122200,115806
1766327404.2125711,122200,115806
1766327404.223527,122370,115864
1766327404.2344785,122196,115797
1766327404.2454326,122196,115797
1766327404.256385,122196,115797
1766327404.2673373,122154,115754
1766327404.2782924,122203,115807
1766327404.2892447,122203,115807
1766327404.300198,121800,115643
1766327404.3111494,122257,115842
1766327404.322102,122257,115842
1766327404.3330557,122257,115842
1766327404.3440208,121666,115561
1766327404.3549812,122333,115878
1766327404.3659353,122333,115878
1766327404.376888,122333,115878
1766327404.3878438,121612,115545
1766327404.3987978,122342,115860
1766327404.4098837,122342,115860
1766327404.4209247,121646,115561
1766327404.4318962,122384,115879
1766327404.4428508,122384,115879
1766327404.4538043,122384,115879
1766327404.4647741,121695,115575
1766327404.4758093,122372,115893
1766327404.4867685,122372,115893
1766327404.4977458,121775,115617
1766327404.5087013,122428,115900
1766327404.5196645,122428,115900
1766327404.5306203,122428,115900
1766327404.5415742,121788,115617
1766327404.5525284,122447,115904
1766327404.5634818,122447,115904
1766327404.5744362,122447,115904
1766327404.585404,121773,115620
1766327404.5964928,122427,115887
1766327404.6074586,122427,115887
1766327404.6184196,121786,115625
1766327404.6293762,122433,115887
1766327404.6403308,122433,115887
1766327404.6512835,122433,115887
1766327404.662237,121824,115629
1766327404.673192,122141,115766
1766327404.6841578,122141,115766
1766327404.6951313,122141,115766
1766327404.7060928,122141,115766
1766327404.7170467,121881,115663
1766327404.728003,121881,115663
1766327404.7389617,121945,115686
1766327404.749996,121807,115633
1766327404.7609584,121807,115633
1766327404.771924,121807,115633
1766327404.7828934,122004,115708
1766327404.793864,121801,115665
1766327404.804821,121801,115665
1766327404.8157783,122076,115745
1766327404.826731,121811,115656
1766327404.837682,121811,115656
1766327404.8486369,121811,115656
1766327404.859588,122101,115744
1766327404.870543,121849,115675
1766327404.881495,121849,115675
1766327404.892448,121849,115675
1766327404.9034007,122141,115751
1766327404.9143548,121927,115666
1766327404.9253047,121927,115666
1766327404.936466,122165,115771
1766327404.9476745,121928,115693
1766327404.9587452,121928,115693
1766327404.9697888,121928,115693
1766327404.9808936,122216,115783
1766327404.9920053,121935,115707
1766327405.0030918,121935,115707
1766327405.014184,122246,115775
1766327405.0252612,121932,115700
1766327405.0364516,121932,115700
1766327405.0481973,121932,115700
1766327405.0593083,122253,115794
1766327405.0704088,121975,115706
1766327405.0814953,121975,115706
1766327405.0924582,121975,115706
1766327405.1034155,121966,115662
1766327405.1143842,122047,115733
1766327405.1253402,122047,115733
1766327405.1362941,121733,115556
1766327405.1472497,122093,115765
1766327405.1582031,122093,115765
1766327405.1691577,122093,115765
1766327405.1801155,121624,115534
1766327405.1911156,122123,115781
1766327405.202073,122123,115781
1766327405.213047,121628,115525
1766327405.2240052,122203,115780
1766327405.2349584,122203,115780
1766327405.2459145,122203,115780
1766327405.256867,121670,115549
1766327405.2678201,122238,115810
1766327405.278777,122238,115810
1766327405.2897305,122238,115810
1766327405.3006837,121777,115589
1766327405.3116364,122248,115795
1766327405.322589,122248,115795
1766327405.3335416,121829,115638
1766327405.3444946,122299,115833
1766327405.3554485,122299,115833
1766327405.3664014,122299,115833
1766327405.3773782,121820,115610
1766327405.3883479,122326,115848
1766327405.3993142,122326,115848
1766327405.4104207,122326,115848
1766327405.4214792,121779,115583
1766327405.432441,122378,115874
1766327405.443396,122378,115874
1766327405.4543593,121840,115622
1766327405.465315,122370,115864
1766327405.4762692,122370,115864
1766327405.4872909,122370,115864
1766327405.4982493,121885,115644
1766327405.509204,122154,115754
1766327405.5201652,122154,115754
1766327405.5311177,121967,115681
1766327405.5420694,121800,115643
1766327405.5530412,121800,115643
1766327405.5639954,121800,115643
1766327405.5749488,122032,115699
1766327405.5859125,121666,115561
1766327405.596941,121666,115561
1766327405.6079042,121666,115561
1766327405.6188679,122085,115731
1766327405.6298234,121612,115545
1766327405.6408336,121612,115545
1766327405.6517925,122141,115736
1766327405.6627493,121646,115561
1766327405.6737092,121646,115561
1766327405.6846626,121646,115561
1766327405.695614,122165,115758
1766327405.7065725,121695,115575
1766327405.7175279,121695,115575
1766327405.7284808,121695,115575
1766327405.7394335,121695,115575
1766327405.7504113,121775,115617
1766327405.761365,121775,115617
1766327405.7723238,122234,115779
1766327405.783284,121788,115617
1766327405.794241,121788,115617
1766327405.8051927,121788,115617
1766327405.8161662,122271,115784
1766327405.8271205,121773,115620
1766327405.8380728,121773,115620
1766327405.8490348,122213,115748
1766327405.859989,121786,115625
1766327405.8709428,121786,115625
1766327405.8818955,121786,115625
1766327405.8928473,121912,115623
1766327405.9037988,121824,115629
1766327405.91475,121824,115629
1766327405.9257023,121824,115629
1766327405.9366543,121731,115537
1766327405.9476097,122141,115766
1766327405.9585612,122141,115766
1766327405.969517,121690,115562
1766327405.980471,121945,115686
1766327405.991429,121945,115686
1766327406.0023825,121945,115686
1766327406.0133357,121729,115553
1766327406.0242906,122004,115708
1766327406.035243,122004,115708
1766327406.0461953,122004,115708
1766327406.0571523,121774,115589
1766327406.0681064,122076,115745
1766327406.0790584,122076,115745
1766327406.0900106,121872,115619
1766327406.100977,122101,115744
1766327406.1119294,122101,115744
1766327406.122882,122101,115744
1766327406.133834,121910,115633
1766327406.1447866,122141,115751
1766327406.1557388,122141,115751
1766327406.166691,121863,115601
1766327406.1776466,122165,115771
1766327406.1886072,122165,115771
1766327406.19956,122165,115771
1766327406.2105608,121893,115613
1766327406.2216103,122216,115783
1766327406.232651,122216,115783
1766327406.2436929,122216,115783
1766327406.2547297,121973,115641
1766327406.2657642,122246,115775
1766327406.2768028,122246,115775
1766327406.2878397,122008,115693
1766327406.2988758,122253,115794
1766327406.3099365,122253,115794
1766327406.3209784,122253,115794
1766327406.33202,122087,115702
1766327406.3430562,121966,115662
1766327406.3540905,121966,115662
1766327406.365127,122190,115744
1766327406.3762004,121733,115556
1766327406.3872573,121733,115556
1766327406.3983014,121733,115556
1766327406.4095182,122203,115729
1766327406.4207265,121624,115534
1766327406.431783,121624,115534
1766327406.4428515,121624,115534
1766327406.4539535,122199,115750
1766327406.4650042,121628,115525
1766327406.4760456,121628,115525
1766327406.4870694,122268,115740
1766327406.4980886,121670,115549
1766327406.5091085,121670,115549
1766327406.5201392,121670,115549
1766327406.5311646,122306,115771
1766327406.5421834,121777,115589
1766327406.5532007,121777,115589
1766327406.56424,122237,115732
1766327406.5753014,121829,115638
1766327406.5863426,121829,115638
1766327406.5975144,121829,115638
1766327406.6085472,121977,115620
1766327406.619597,121820,115610
1766327406.6306202,121820,115610
1766327406.6416464,121820,115610
1766327406.6528156,121717,115518
1766327406.6639743,121779,115583
1766327406.6751282,121779,115583
1766327406.6862447,121681,115470
1766327406.6973736,121840,115622
1766327406.7084928,121840,115622
1766327406.7194707,121840,115622
1766327406.730426,121704,115517
1766327406.7413862,121885,115644
1766327406.7523386,121885,115644
1766327406.763297,121759,115544
1766327406.7742682,121967,115681
1766327406.7852368,121967,115681
1766327406.7961953,121967,115681
1766327406.8071592,121833,115569
1766327406.8181233,122032,115699
1766327406.8290772,122032,115699
1766327406.8400295,122032,115699
1766327406.850982,121929,115591
1766327406.8619335,122085,115731
1766327406.8728957,122085,115731
1766327406.883852,121916,115612
1766327406.894807,122141,115736
1766327406.9057586,122141,115736
1766327406.9167213,122141,115736
1766327406.9276779,121917,115600
1766327406.9386315,122165,115758
1766327406.9495847,122165,115758
1766327406.9605365,122165,115758
1766327406.9714947,121917,115586
1766327406.9824562,121695,115575
1766327406.9934149,121695,115575
1766327407.0043685,122013,115645
1766327407.0153248,122234,115779
1766327407.0262809,122234,115779
1766327407.0372334,122234,115779
1766327407.0481944,122092,115678
1766327407.0592368,122271,115784
1766327407.0702078,122271,115784
1766327407.0811763,122125,115672
1766327407.0921316,122213,115748
1766327407.1030848,122213,115748
1766327407.1140468,122213,115748
1766327407.1250067,122205,115715
1766327407.1359594,121912,115623
1766327407.1469312,121912,115623
1766327407.1578918,121912,115623
1766327407.1688552,122270,115722
1766327407.1798184,121731,115537
1766327407.1907828,121731,115537
1766327407.201736,122278,115758
1766327407.2126896,121690,115562
1766327407.2236545,121690,115562
1766327407.23461,121690,115562
1766327407.2455654,122308,115745
1766327407.2565193,121729,115553
1766327407.26748,121729,115553
1766327407.2784398,121729,115553
1766327407.2893944,122230,115698
1766327407.3003473,121774,115589
1766327407.311303,121774,115589
1766327407.3222625,121951,115580
1766327407.3332193,121872,115619
1766327407.3441725,121872,115619
1766327407.3551245,121872,115619
1766327407.3660817,121716,115482
1766327407.3770523,121910,115633
1766327407.3880148,121910,115633
1766327407.3989701,121628,115431
1766327407.4101427,121863,115601
1766327407.421205,121863,115601
1766327407.432176,121863,115601
1766327407.4431927,121677,115468
1766327407.4541554,121893,115613
1766327407.4651313,121893,115613
1766327407.476088,121893,115613
1766327407.487042,121668,115480
1766327407.4980223,121973,115641
1766327407.5089777,121973,115641
1766327407.519942,121779,115505
1766327407.5308964,122008,115693
1766327407.541849,122008,115693
1766327407.5528011,122008,115693
1766327407.5637548,121875,115553
1766327407.5747156,122087,115702
1766327407.5856807,122087,115702
1766327407.5967138,122087,115702
1766327407.6076744,122190,115744
1766327407.6186547,122190,115744
1766327407.629611,122190,115744
1766327407.6405659,121892,115567
1766327407.651519,122203,115729
1766327407.6624773,122203,115729
1766327407.6734455,122203,115729
1766327407.6844006,121924,115583
1766327407.6953516,122199,115750
1766327407.7063062,122199,115750
1766327407.717267,122048,115638
1766327407.7282212,122268,115740
1766327407.7391758,122268,115740
1766327407.7501278,122268,115740
1766327407.7610788,122078,115644
1766327407.772042,122306,115771
1766327407.7831144,122306,115771
1766327407.7941623,122306,115771
1766327407.805194,122100,115660
1766327407.816229,122237,115732
1766327407.8272653,122237,115732
1766327407.8382921,122198,115658
1766327407.849334,121977,115620
1766327407.8603587,121977,115620
1766327407.8714156,121977,115620
1766327407.882402,122231,115692
1766327407.8933563,121717,115518
1766327407.9043133,121717,115518
1766327407.9152822,122240,115710
1766327407.9262402,121681,115470
1766327407.9371939,121681,115470
1766327407.948161,121681,115470
1766327407.9591126,122306,115719
1766327407.9700742,121704,115517
1766327407.9810417,121704,115517
1766327407.9920077,121704,115517
1766327408.0029614,122285,115702
1766327408.013924,121759,115544
1766327408.0248837,121759,115544
1766327408.0358372,121963,115555
1766327408.04679,121833,115569
1766327408.057744,121833,115569
1766327408.0687056,121833,115569
1766327408.0796618,121714,115450
1766327408.0906155,121929,115591
1766327408.101567,121929,115591
1766327408.1125271,121929,115591
1766327408.1234903,121647,115453
1766327408.1344469,121916,115612
1766327408.1453996,121916,115612
1766327408.1563523,121642,115428
1766327408.1673653,121917,115600
1766327408.1783595,121917,115600
1766327408.1893353,121917,115600
1766327408.20031,121669,115450
1766327408.2112675,121917,115586
1766327408.2222288,121917,115586
1766327408.2331948,121731,115482
1766327408.24416,122013,115645
1766327408.2551124,122013,115645
1766327408.2660887,122013,115645
1766327408.2770634,121815,115523
1766327408.288017,122092,115678
1766327408.2989745,122092,115678
1766327408.3099267,122092,115678
1766327408.3208914,121846,115525
1766327408.3318477,122125,115672
1766327408.3428004,122125,115672
1766327408.3537536,121819,115499
1766327408.3647094,122205,115715
1766327408.3756692,122205,115715
1766327408.3866315,122205,115715
1766327408.397593,121887,115534
1766327408.408686,122270,115722
1766327408.4197855,122270,115722
1766327408.4308639,122270,115722
1766327408.4418914,121962,115554
1766327408.452854,122278,115758
1766327408.4638274,122278,115758
1766327408.4748018,122018,115590
1766327408.4857576,122308,115745
1766327408.496712,122308,115745
1766327408.507664,122308,115745
1766327408.518626,122087,115620
1766327408.5295842,122230,115698
1766327408.5405376,122230,115698
1766327408.5515156,122107,115622
1766327408.56247,121951,115580
1766327408.57343,121951,115580
1766327408.5843842,121951,115580
1766327408.5954962,122198,115657
1766327408.6064672,121716,115482
1766327408.6174445,121716,115482
1766327408.6284015,121716,115482
1766327408.639356,122234,115670
1766327408.6504898,121628,115431
1766327408.6615486,121628,115431
1766327408.6725233,122248,115699
1766327408.6836915,121677,115468
1766327408.6959255,121677,115468
1766327408.7069902,121677,115468
1766327408.7180674,122277,115693
1766327408.7294028,121668,115480
1766327408.74066,121668,115480
1766327408.7519107,122282,115657
1766327408.7630482,121779,115505
1766327408.774221,121779,115505
1766327408.7856996,121779,115505
1766327408.7969677,122089,115605
1766327408.808084,121875,115553
1766327408.8191848,121875,115553
1766327408.8302932,121768,115482
1766327408.8412585,121861,115542
1766327408.8522174,121861,115542
1766327408.8631792,121861,115542
1766327408.8741374,121673,115423
1766327408.8850925,121892,115567
1766327408.8960466,121892,115567
1766327408.907017,121892,115567
1766327408.917975,121641,115431
1766327408.9289296,121924,115583
1766327408.9398835,121924,115583
1766327408.9508367,121726,115418
1766327408.9617894,122048,115638
1766327408.9727423,122048,115638
1766327408.9836938,122048,115638
1766327408.9946792,121808,115479
1766327409.0056372,122078,115644
1766327409.016592,122078,115644
1766327409.0275457,122078,115644
1766327409.0384984,122100,115660
1766327409.049451,122100,115660
1766327409.0604045,122100,115660
1766327409.0713565,121905,115518
1766327409.0823238,122198,115658
1766327409.093279,122198,115658
1766327409.1042318,122198,115658
1766327409.1151843,121883,115510
1766327409.1261356,122231,115692
1766327409.1370933,122231,115692
1766327409.1480455,121925,115550
1766327409.1589978,122240,115710
1766327409.1699502,122240,115710
1766327409.1809156,122240,115710
1766327409.1918974,121955,115538
1766327409.2028604,122306,115719
1766327409.2138133,122306,115719
1766327409.2247665,122306,115719
1766327409.2357187,122004,115569
1766327409.246673,122285,115702
1766327409.257644,122285,115702
1766327409.268599,122088,115604
1766327409.2795684,121963,115555
1766327409.2905235,121963,115555
1766327409.3014767,121963,115555
1766327409.312429,122130,115608
1766327409.323383,121714,115450
1766327409.3343353,121714,115450
1766327409.3452868,121714,115450
1766327409.356239,121714,115450
1766327409.3671916,121647,115453
1766327409.378147,121647,115453
1766327409.3891222,122192,115626
1766327409.4001033,121642,115428
1766327409.4111881,121642,115428
1766327409.4222355,121642,115428
1766327409.4332862,122231,115638
1766327409.4442453,121669,115450
1766327409.4552002,121669,115450
1766327409.466166,122269,115670
1766327409.4771204,121731,115482
1766327409.488074,121731,115482
1766327409.4990265,121731,115482
1766327409.5099802,122157,115598
1766327409.5209959,121815,115523
1766327409.5319526,121815,115523
1766327409.5429053,121815,115523
1766327409.5538638,121816,115463
1766327409.5648215,121846,115525
1766327409.575774,121846,115525
1766327409.586754,121676,115368
1766327409.597813,121819,115499
1766327409.6088092,121819,115499
1766327409.6197734,121819,115499
1766327409.6307278,121669,115391
1766327409.641685,121887,115534
1766327409.6526396,121887,115534
1766327409.663593,121887,115534
1766327409.6746552,121962,115554
1766327409.6857133,121962,115554
1766327409.6967592,121962,115554
1766327409.7077289,121771,115449
1766327409.718695,122018,115590
1766327409.729649,122018,115590
1766327409.7406013,122018,115590
1766327409.751558,121860,115477
1766327409.7625113,122087,115620
1766327409.7734883,122087,115620
1766327409.784446,121830,115477
1766327409.795428,122107,115622
1766327409.8063855,122107,115622
1766327409.8173418,122107,115622
1766327409.8282948,121868,115478
1766327409.8392477,122198,115657
1766327409.8501995,122198,115657
1766327409.8611515,122198,115657
1766327409.872187,121870,115487
1766327409.8831666,122234,115670
1766327409.8941307,122234,115670
1766327409.9050863,121936,115489
1766327409.9160426,122248,115699
1766327409.9269955,122248,115699
1766327409.9379482,122248,115699
1766327409.9489172,122004,115532
1766327409.9598765,122277,115693
1766327409.9708345,122277,115693
1766327409.9817874,122095,115583
1766327409.992775,122282,115657
1766327410.0037463,122282,115657
1766327410.014716,122282,115657
1766327410.0256703,122119,115582
1766327410.036625,122089,115605
1766327410.0475767,122089,115605
1766327410.0585294,122089,115605
1766327410.0694826,122162,115602
1766327410.0804348,121768,115482
1766327410.0913858,121768,115482
1766327410.102338,122175,115591
1766327410.1132903,121673,115423
1766327410.1242588,121673,115423
1766327410.135217,121673,115423
1766327410.1461704,122230,115627
1766327410.1571267,121641,115431
1766327410.1680887,121641,115431
1766327410.179089,121641,115431
1766327410.1901138,122223,115630
1766327410.201097,121726,115418
1766327410.2120528,121726,115418
1766327410.223017,122062,115524
1766327410.2339747,121808,115479
1766327410.2449298,121808,115479
1766327410.255886,121808,115479
1766327410.266848,121747,115406
1766327410.2778137,121880,115499
1766327410.2887688,121880,115499
1766327410.2997382,121631,115385
1766327410.3106918,121905,115518
1766327410.321653,121905,115518
1766327410.332609,121905,115518
1766327410.3435621,121580,115341
1766327410.3545146,121883,115510
1766327410.3654726,121883,115510
1766327410.376429,121883,115510
1766327410.3874185,121585,115348
1766327410.3983984,121925,115550
1766327410.4095092,121925,115550
1766327410.4205658,121605,115358
1766327410.4315786,121955,115538
1766327410.442539,121955,115538
1766327410.4534984,121955,115538
1766327410.46447,121727,115408
1766327410.4754584,122004,115569
1766327410.4864142,122004,115569
1766327410.4973674,122004,115569
1766327410.5083194,121790,115446
1766327410.5192785,122088,115604
1766327410.530232,122088,115604
1766327410.541184,121746,115407
1766327410.5521364,122130,115608
1766327410.563088,122130,115608
1766327410.5740533,122130,115608
1766327410.5850081,121762,115424
1766327410.5961823,121714,115450
1766327410.6071541,121714,115450
1766327410.6181214,121784,115409
1766327410.6290789,122192,115626
1766327410.6400888,122192,115626
1766327410.6510696,122192,115626
1766327410.6620257,121876,115462
1766327410.6729934,122231,115638
1766327410.6839514,122231,115638
1766327410.694904,122231,115638
1766327410.7058601,121959,115492
1766327410.7168205,122269,115670
1766327410.7277753,122269,115670
1766327410.7387316,121993,115516
1766327410.749687,122157,115598
1766327410.7606401,122157,115598
1766327410.7716048,122157,115598
1766327410.7825768,122061,115534
1766327410.79356,121816,115463
1766327410.8045263,121816,115463
1766327410.815488,121816,115463
1766327410.8264446,122096,115566
1766327410.8373983,121676,115368
1766327410.848352,121676,115368
1766327410.8593037,122127,115566
1766327410.870261,121669,115391
1766327410.8812163,121669,115391
1766327410.892171,121669,115391
1766327410.9031234,122162,115580
1766327410.9140782,121714,115418
1766327410.9250515,121714,115418
1766327410.936005,122039,115511
1766327410.9469583,121771,115449
1766327410.9579105,121771,115449
1766327410.96887,121771,115449
1766327410.979826,121754,115377
1766327410.9908016,121860,115477
1766327411.001786,121860,115477
1766327411.0127437,121860,115477
1766327411.023707,121545,115297
1766327411.034664,121830,115477
1766327411.0456166,121830,115477
1766327411.0565693,121448,115265
1766327411.067528,121868,115478
1766327411.0784833,121868,115478
1766327411.0894356,121868,115478
1766327411.1003883,121480,115279
1766327411.1113403,121870,115487
1766327411.1222959,121870,115487
1766327411.1332512,121870,115487
1766327411.1442034,121517,115312
1766327411.1551547,121936,115489
1766327411.166111,121936,115489
1766327411.1771162,121584,115319
1766327411.1882288,122004,115532
1766327411.1993263,122004,115532
1766327411.2103734,122004,115532
1766327411.2213566,121642,115349
1766327411.2323182,122095,115583
1766327411.2432792,122095,115583
1766327411.2542298,121629,115325
1766327411.2651937,122119,115582
1766327411.276164,122119,115582
1766327411.287117,122119,115582
1766327411.2980697,121671,115360
1766327411.309037,122162,115602
1766327411.3199985,122162,115602
1766327411.3309543,122162,115602
1766327411.3419082,121740,115382
1766327411.3528833,122175,115591
1766327411.363839,122175,115591
1766327411.3747988,121801,115438
1766327411.385752,122230,115627
1766327411.3967395,122230,115627
1766327411.4077396,122230,115627
1766327411.4187927,121878,115441
1766327411.429753,122223,115630
1766327411.4407084,122223,115630
1766327411.4516623,122223,115630
1766327411.4626148,121929,115452
1766327411.473577,122062,115524
1766327411.4845316,122062,115524
1766327411.495484,122007,115496
1766327411.5064435,121747,115406
1766327411.5174358,121747,115406
1766327411.5284233,121747,115406
1766327411.539381,122046,115511
1766327411.5503368,121631,115385
1766327411.5612893,121631,115385
1766327411.5722497,122075,115510
1766327411.583226,121580,115341
1766327411.5944438,121580,115341
1766327411.605435,121580,115341
1766327411.6164074,122142,115539
1766327411.6273637,121585,115348
1766327411.6383183,121585,115348
1766327411.6492703,121585,115348
1766327411.6602285,122134,115549
1766327411.6711926,121605,115358
1766327411.6821485,121605,115358
1766327411.6931026,122029,115481
1766327411.704077,121727,115408
1766327411.7150369,121727,115408
1766327411.726078,121727,115408
1766327411.7371187,121702,115342
1766327411.7481906,121790,115446
1766327411.759232,121790,115446
1766327411.770279,121573,115314
1766327411.7813494,121746,115407
1766327411.792771,121746,115407
1766327411.8038344,121746,115407
1766327411.8149083,121535,115282
1766327411.8259647,121762,115424
1766327411.8370068,121762,115424
1766327411.8480403,121762,115424
1766327411.8590853,121508,115291
1766327411.8701398,121784,115409
1766327411.8811805,121784,115409
1766327411.8922186,121608,115285
1766327411.90326,121876,115462
1766327411.9143374,121876,115462
1766327411.9253902,121876,115462
1766327411.9364328,121707,115359
1766327411.9474747,121959,115492
1766327411.9585085,121959,115492
1766327411.9695632,121724,115353
1766327411.9806087,121993,115516
1766327411.9916914,121993,115516
1766327412.0027647,121993,115516
1766327412.0138237,121758,115369
1766327412.024881,122061,115534
1766327412.035926,122061,115534
1766327412.0469623,122061,115534
1766327412.0580308,121728,115374
1766327412.0692484,122096,115566
1766327412.0803175,122096,115566
1766327412.091359,121823,115365
1766327412.102404,122127,115566
1766327412.1134655,122127,115566
1766327412.1245286,122127,115566
1766327412.1355724,121902,115425
1766327412.1466088,122162,115580
1766327412.1576436,122162,115580
1766327412.168701,121964,115463
1766327412.1797767,122039,115511
1766327412.1908648,122039,115511
1766327412.2019525,122039,115511
1766327412.2129993,122043,115483
1766327412.2240684,121754,115377
1766327412.2351537,121754,115377
1766327412.2461936,121754,115377
1766327412.2572296,122116,115539
1766327412.268289,121545,115297
1766327412.2793589,121545,115297
1766327412.2903984,122114,115523
1766327412.3014371,121448,115265
1766327412.3124712,121448,115265
1766327412.323542,121448,115265
1766327412.3346012,122141,115536
1766327412.3456404,121480,115279
1766327412.3566782,121480,115279
1766327412.3677342,122200,115576
1766327412.3787825,121517,115312
1766327412.389862,121517,115312
1766327412.4009428,121517,115312
1766327412.412273,122182,115551
1766327412.4234273,121584,115319
1766327412.4345987,121584,115319
1766327412.4460616,121584,115448
1766327412.457351,121642,115349
1766327412.4685442,121642,115349
1766327412.4796371,121642,115349
1766327412.490725,121708,115315
1766327412.501805,121629,115325
1766327412.5128825,121629,115325
1766327412.5240235,121629,115325
1766327412.5351613,121580,115289
1766327412.5462487,121671,115360
1766327412.5573294,121671,115360
1766327412.5684214,121618,115290
1766327412.5795038,121740,115382
1766327412.5918002,121740,115382
1766327412.6033611,121740,115382
1766327412.6144416,121613,115322
1766327412.625498,121801,115438
1766327412.6365726,121801,115438
1766327412.6475337,121735,115326
1766327412.6584976,121878,115441
1766327412.6694627,121878,115441
1766327412.6804175,121878,115441
1766327412.6913705,121813,115386
1766327412.7023256,121929,115452
1766327412.7132826,121929,115452
1766327412.7242413,121805,115407
1766327412.735195,122007,115496
1766327412.7461488,122007,115496
1766327412.7571197,122007,115496
1766327412.7680829,121812,115380
1766327412.7790546,122046,115511
1766327412.7900326,122046,115511
1766327412.8010066,122046,115511
1766327412.8119626,121831,115393
1766327412.8229191,122075,115510
1766327412.8338716,122075,115510
1766327412.844824,121865,115397
1766327412.8557768,122142,115539
1766327412.8667295,122142,115539
1766327412.877694,122142,115539
1766327412.888667,121970,115446
1766327412.8996203,122134,115549
1766327412.9105735,122134,115549
1766327412.9215283,122134,115549
1766327412.9324815,122048,115486
1766327412.9434335,122029,115481
1766327412.9543858,122029,115481
1766327412.9653387,122082,115478
1766327412.9762914,121702,115342
1766327412.9872417,121702,115342
1766327412.9982188,121702,115342
1766327413.0091803,122131,115500
1766327413.020251,121573,115314
1766327413.0313148,121573,115314
1766327413.0423586,122146,115513
1766327413.0533211,121535,115282
1766327413.0642812,121535,115282
1766327413.0752358,121535,115282
1766327413.08619,122188,115531
1766327413.097143,121508,115291
1766327413.1081076,121508,115291
1766327413.1190639,121508,115291
1766327413.1300173,122227,115539
1766327413.1409698,121608,115285
1766327413.151922,121608,115285
1766327413.1628742,122141,115483
1766327413.1739178,121707,115359
1766327413.1848857,121707,115359
1766327413.1958737,121707,115359
1766327413.2068386,121873,115386
1766327413.2177973,121724,115353
1766327413.2287571,121724,115353
1766327413.23971,121724,115353
1766327413.2506654,121679,115323
1766327413.2616181,121758,115369
1766327413.2725716,121758,115369
1766327413.2835412,121644,115295
1766327413.294498,121728,115374
1766327413.3054671,121728,115374
1766327413.3164246,121728,115374
1766327413.3273785,121672,115309
1766327413.3383331,121823,115365
1766327413.3492882,121823,115365
1766327413.3602421,121705,115322
1766327413.3711972,121902,115425
1766327413.3821497,121902,115425
1766327413.393147,121902,115425
1766327413.4041336,121824,115387
1766327413.4152045,121964,115463
1766327413.4262252,121964,115463
1766327413.4371853,121964,115463
1766327413.4481394,121893,115393
1766327413.459114,122043,115483
1766327413.470077,122043,115483
1766327413.4811263,121858,115415
1766327413.4920824,122116,115539
1766327413.5030375,122116,115539
1766327413.5139945,122116,115539
1766327413.524949,121876,115395
1766327413.5358994,122114,115523
1766327413.5468535,122114,115523
1766327413.5578063,122114,115523
1766327413.5687635,121890,115413
1766327413.5797153,122141,115536
1766327413.5911632,122141,115536
1766327413.6022546,121974,115442
1766327413.6132295,122200,115576
1766327413.624191,122200,115576
1766327413.6351433,122200,115576
1766327413.6461008,122045,115461
1766327413.6570551,122182,115551
1766327413.6680086,122182,115551
1766327413.6789625,122096,115520
1766327413.6899166,121954,115448
1766327413.7008712,121954,115448
1766327413.7118244,121954,115448
1766327413.7227776,122155,115504
1766327413.733729,121708,115315
1766327413.7446833,121708,115315
1766327413.7556384,121708,115315
1766327413.7665896,122142,115514
1766327413.7775617,121580,115289
1766327413.7885172,121580,115289
1766327413.7994978,122218,115515
1766327413.810471,121618,115290
1766327413.821429,121618,115290
1766327413.8323817,121618,115290
1766327413.843333,122252,115546
1766327413.8542857,121613,115322
1766327413.865238,121613,115322
1766327413.8761904,121613,115322
1766327413.887142,121735,115326
1766327413.898094,121735,115326
1766327413.9090452,121735,115326
1766327413.9199975,121950,115414
1766327413.9309645,121813,115386
1766327413.9419196,121813,115386
1766327413.9528728,121813,115386
1766327413.9638252,121693,115294
1766327413.9747784,121805,115407
1766327413.9857304,121805,115407
1766327413.9967077,121654,115279
1766327414.007671,121812,115380
1766327414.0186274,121812,115380
1766327414.0295808,121812,115380
1766327414.0405362,121640,115281
1766327414.051488,121831,115393
1766327414.062442,121831,115393
1766327414.073396,121831,115393
1766327414.0843487,121648,115294
1766327414.0953052,121865,115397
1766327414.1062574,121865,115397
1766327414.117211,121740,115347
1766327414.128164,121970,115446
1766327414.1391153,121970,115446
1766327414.150066,121970,115446
1766327414.1610606,121812,115366
1766327414.1720169,122048,115486
1766327414.182987,122048,115486
1766327414.1939595,122048,115486
1766327414.2049294,122048,115486
1766327414.2158854,122082,115478
1766327414.2268384,122082,115478
1766327414.2377925,121822,115361
1766327414.2487462,122131,115500
1766327414.2596984,122131,115500
1766327414.2706513,122131,115500
1766327414.2816207,121842,115386
1766327414.2925758,122146,115513
1766327414.3035288,122146,115513
1766327414.3144805,121909,115386
1766327414.325432,122188,115531
1766327414.336384,122188,115531
1766327414.347335,122188,115531
1766327414.3582866,121995,115430
1766327414.36924,122227,115539
1766327414.3801913,122227,115539
1766327414.3911607,122227,115539
1766327414.4021313,122085,115465
1766327414.413245,122141,115483
1766327414.4242911,122141,115483
1766327414.4352837,122108,115512
1766327414.4462748,121873,115386
1766327414.457234,121873,115386
1766327414.4682038,121873,115386
1766327414.4791567,122167,115498
1766327414.4901094,121679,115323
1766327414.5010617,121679,115323
1766327414.5120323,121679,115323
1766327414.5229874,121644,115295
1766327414.5339394,121644,115295
1766327414.5448914,121644,115295
1766327414.555843,122222,115532
1766327414.5667927,121672,115309
1766327414.5777707,121672,115309
1766327414.588727,121672,115309
1766327414.5997965,122263,115537
1766327414.6108007,121705,115322
1766327414.6217675,121705,115322
1766327414.6327224,122273,115567
1766327414.6436765,121824,115387
1766327414.6546342,121824,115387
1766327414.6656837,121824,115387
1766327414.676645,121979,115405
1766327414.687597,121893,115393
1766327414.6985545,121893,115393
1766327414.7095084,121893,115393
1766327414.7204642,121658,115283
1766327414.7314165,121858,115415
1766327414.742369,121858,115415
1766327414.7533243,121612,115234
1766327414.7642834,121876,115395
1766327414.775237,121876,115395
1766327414.7862036,121876,115395
1766327414.7971938,121609,115259
1766327414.80816,121890,115413
1766327414.8191147,121890,115413
1766327414.8300703,121890,115413
1766327414.8410397,121974,115442
1766327414.8519936,121974,115442
1766327414.862968,121974,115442
1766327414.8739235,121699,115311
1766327414.8848772,122045,115461
1766327414.8958294,122045,115461
1766327414.9067817,122045,115461
1766327414.9177327,121793,115342
1766327414.9286869,122096,115520
1766327414.9396393,122096,115520
1766327414.950591,121851,115382
1766327414.9615433,122155,115504
1766327414.9724958,122155,115504
1766327414.9834464,122155,115504
1766327414.9944186,121809,115351
1766327415.0053895,122142,115514
1766327415.0163584,122142,115514
1766327415.027312,122142,115514
1766327415.0382648,121831,115370
1766327415.0492165,122218,115515
1766327415.0601692,122218,115515
1766327415.0711224,121912,115390
1766327415.0820756,122252,115546
1766327415.0930417,122252,115546
1766327415.103994,122252,115546
1766327415.114945,121977,115419
1766327415.1258962,122211,115504
1766327415.1368482,122211,115504
1766327415.1477997,122211,115504
1766327415.1587515,122211,115504
1766327415.1697032,121950,115414
1766327415.1806552,121950,115414
1766327415.1916728,122110,115470
1766327415.202664,121693,115294
1766327415.2136354,121693,115294
1766327415.2245927,121693,115294
1766327415.235546,122173,115484
1766327415.246498,121654,115279
1766327415.2574527,121654,115279
1766327415.268406,122220,115512
1766327415.2793787,121640,115281
1766327415.2903335,121640,115281
1766327415.3012857,121640,115281
1766327415.3122394,122236,115514
1766327415.3231947,121648,115294
1766327415.3341486,121648,115294
1766327415.345341,121648,115294
1766327415.356305,122219,115526
1766327415.3672605,121740,115347
1766327415.3782141,121740,115347
1766327415.3891928,122268,115510
1766327415.4001794,121812,115366
1766327415.4113016,121812,115366
1766327415.4223619,121812,115366
1766327415.4333875,122015,115412
1766327415.4443471,122048,115486
1766327415.455301,122048,115486
1766327415.4662623,121775,115324
1766327415.4772158,121822,115361
1766327415.488169,121822,115361
1766327415.499121,121822,115361
1766327415.5100725,121670,115267
1766327415.5210528,121842,115386
1766327415.5320084,121842,115386
1766327415.5429606,121842,115386
1766327415.553932,121674,115271
1766327415.564892,121909,115386
1766327415.5758443,121909,115386
1766327415.5867956,121673,115289
1766327415.5978544,121995,115430
1766327415.6088681,121995,115430
1766327415.619833,121995,115430
1766327415.630788,121786,115326
1766327415.6418211,122085,115465
1766327415.6527865,122085,115465
1766327415.6637444,122085,115465
1766327415.6747012,121882,115377
1766327415.6856558,122108,115512
1766327415.6966178,122108,115512
1766327415.707573,121882,115352
1766327415.718533,122167,115498
1766327415.7294853,122167,115498
1766327415.740438,122167,115498
1766327415.7513957,121891,115367
1766327415.7623775,122154,115482
1766327415.7733366,122154,115482
1766327415.7843108,121915,115404
1766327415.7952945,122222,115532
1766327415.8062658,122222,115532
1766327415.817224,122222,115532
1766327415.8281775,121973,115402
1766327415.8391297,122263,115537
1766327415.850083,122263,115537
1766327415.8610468,122263,115537
1766327415.8719993,122055,115430
1766327415.8829582,122273,115567
1766327415.8939188,122273,115567
1766327415.9048896,122100,115432
1766327415.915846,121979,115405
1766327415.9267983,121979,115405
1766327415.9377506,121979,115405
1766327415.9487035,122182,115481
1766327415.9596546,121658,115283
1766327415.970606,121658,115283
1766327415.981558,121658,115283
1766327415.9925232,122209,115496
1766327416.0034983,121612,115234
1766327416.0144522,121612,115234
1766327416.0254047,122258,115476
1766327416.0363576,121609,115259
1766327416.0473087,121609,115259
1766327416.0582604,121609,115259
1766327416.0692127,122280,115530
1766327416.0801656,121611,115253
1766327416.0911164,121611,115253
1766327416.1020668,121611,115556
1766327416.1130211,121699,115311
1766327416.1239738,121699,115311
1766327416.1349256,121699,115311
1766327416.1458774,122318,115537
1766327416.156829,121793,115342
1766327416.1677804,121793,115342
1766327416.1787324,121793,115342
1766327416.1897027,122082,115427
1766327416.2006752,121851,115382
1766327416.2116299,121851,115382
1766327416.2225835,121816,115319
1766327416.2337646,121809,115351
1766327416.2449143,121809,115351
1766327416.2560148,121809,115351
1766327416.2670708,121749,115295
1766327416.278258,121831,115370
1766327416.2893443,121831,115370
1766327416.3004413,121831,115370
1766327416.3115208,121912,115390
1766327416.3226004,121912,115390
1766327416.3336809,121912,115390
1766327416.344901,121840,115339
1766327416.3572054,121977,115419
1766327416.3682747,121977,115419
1766327416.3793502,121977,115419
1766327416.3904395,121960,115403
1766327416.4014273,122211,115504
1766327416.4125626,122211,115504
1766327416.4236245,122027,115406
1766327416.4345841,122110,115470
1766327416.4456177,122110,115470
1766327416.4565783,122110,115470
1766327416.4675465,122017,115402
1766327416.4785116,122173,115484
1766327416.4894667,122173,115484
1766327416.500421,122013,115421
1766327416.5113752,122220,115512
1766327416.522336,122220,115512
1766327416.5332913,122220,115512
1766327416.5442452,122041,115427
1766327416.555198,122236,115514
1766327416.566157,122236,115514
1766327416.5771112,122236,115514
1766327416.5880787,122090,115437
1766327416.599112,122219,115526
1766327416.61013,122219,115526
1766327416.621113,122149,115486
1766327416.6320717,122268,115510
1766327416.643025,122268,115510
1766327416.6539876,122268,115510
1766327416.6649473,122210,115488
1766327416.6759021,122015,115412
1766327416.6868567,122015,115412
1766327416.6978116,122015,115412
1766327416.708979,121775,115324
1766327416.7200558,121775,115324
1766327416.7311184,121775,115324
1766327416.7420857,122278,115508
1766327416.7530565,121670,115267
1766327416.7640162,121670,115267
1766327416.7749822,121670,115267
1766327416.7859435,122303,115522
1766327416.796912,121674,115271
1766327416.8078659,121674,115271
1766327416.8188365,122316,115520
1766327416.8297935,121673,115289
1766327416.840746,121673,115289
1766327416.851698,121673,115289
1766327416.8626494,122372,115546
1766327416.8736124,121786,115326
1766327416.8845665,121786,115326
1766327416.8955188,121786,115326
1766327416.9064703,122231,115493
1766327416.917433,121882,115377
1766327416.9283917,121882,115377
1766327416.939345,121982,115352
1766327416.950298,121882,115352
1766327416.9612708,121882,115352
1766327416.9722311,121882,115352
1766327416.9831882,121843,115308
1766327416.9941416,121891,115367
1766327417.0051017,121891,115367
1766327417.0160644,121891,115332
1766327417.027077,121915,115404
1766327417.038056,121915,115404
1766327417.0490844,121915,115404
1766327417.0600438,121899,115338
1766327417.0710099,121973,115402
1766327417.0819678,121973,115402
1766327417.0929224,121973,115402
1766327417.1038742,121999,115382
1766327417.1148336,122055,115430
1766327417.1257885,122055,115430
1766327417.136743,122053,115420
1766327417.1476958,122100,115432
1766327417.1586478,122100,115432
1766327417.1696067,122100,115432
1766327417.1805637,122093,115424
1766327417.1915205,122182,115481
1766327417.2024848,122182,115481
1766327417.2134418,122182,115481
1766327417.2244065,122038,115416
1766327417.2353618,122209,115496
1766327417.2463133,122209,115496
1766327417.2572675,122101,115400
1766327417.2682278,122258,115476
1766327417.2791853,122258,115476
1766327417.2901385,122258,115476
1766327417.3010976,122152,115447
1766327417.3120656,122280,115530
1766327417.3230305,122280,115530
1766327417.3339899,122280,115486
1766327417.3449442,122345,115556
1766327417.355909,122345,115556
1766327417.366872,122345,115556
1766327417.37783,122262,115480
1766327417.3887835,122318,115537
1766327417.3997457,122318,115537
1766327417.410867,122318,115537
1766327417.4219334,122293,115498
1766327417.4328935,122082,115427
1766327417.4438498,122082,115427
1766327417.4548063,122296,115479
1766327417.4657748,121816,115319
1766327417.476729,121816,115319
1766327417.4876885,121816,115319
1766327417.4986427,122352,115514
1766327417.5095959,121749,115295
1766327417.5205579,121749,115295
1766327417.5315108,121749,115295
1766327417.5425096,122346,115528
1766327417.5535502,121765,115287
1766327417.5645986,121765,115287
1766327417.5757406,122357,115489
1766327417.5867856,121840,115339
1766327417.5979784,121840,115339
1766327417.6091254,121840,115339
1766327417.620214,122112,115421
1766327417.631264,121960,115403
1766327417.6423748,121960,115403
1766327417.6533978,121860,115323
1766327417.6645002,122027,115406
1766327417.6755369,122027,115406
1766327417.6865609,122027,115406
1766327417.6975772,121764,115263
1766327417.7085996,122017,115402
1766327417.7196434,122017,115402
1766327417.7306664,122017,115402
1766327417.741693,121809,115309
1766327417.7527373,122013,115421
1766327417.7638013,122013,115421
1766327417.7748604,121806,115303
1766327417.7859085,122041,115427
1766327417.7969587,122041,115427
1766327417.8080025,122041,115427
1766327417.8190577,121897,115325
1766327417.8300946,122090,115437
1766327417.8411348,122090,115437
1766327417.8521998,122003,115394
1766327417.8632507,122149,115486
1766327417.8743083,122149,115486
1766327417.885352,122149,115486
1766327417.8963912,121978,115361
1766327417.9074285,122210,115488
1766327417.918479,122210,115488
1766327417.929527,122210,115488
1766327417.9405668,121993,115359
1766327417.9516206,122208,115476
1766327417.9626565,122208,115476
1766327417.9737153,122010,115372
1766327417.9847643,122278,115508
1766327417.9958088,122278,115508
1766327418.0068529,122278,115508
1766327418.0179355,122059,115395
1766327418.0289876,122303,115522
1766327418.0400484,122303,115522
1766327418.0511122,122141,115415
1766327418.0621476,122316,115520
1766327418.0731978,122316,115520
1766327418.0842478,122316,115520
1766327418.0952907,122195,115449
1766327418.1063259,122372,115546
1766327418.1173759,122372,115546
1766327418.1284246,122372,115546
1766327418.139468,122223,115459
1766327418.1505005,122231,115493
1766327418.1615384,122231,115493
1766327418.1726875,122272,115478
1766327418.1837628,121982,115352
1766327418.1948075,121982,115352
1766327418.2060657,121982,115352
1766327418.2172692,122305,115493
1766327418.2283425,121843,115308
1766327418.2393954,121843,115308
1766327418.2504482,122299,115485
1766327418.2615724,121863,115332
1766327418.2726114,121863,115332
1766327418.2836432,121863,115332
1766327418.2946637,122248,115465
1766327418.3056884,121899,115338
1766327418.3167224,121899,115338
1766327418.327747,121899,115334
1766327418.338767,121999,115382
1766327418.3497887,121999,115382
1766327418.3609061,121999,115382
1766327418.3719964,121706,115223
1766327418.3830397,122053,115420
1766327418.3940783,122053,115420
1766327418.4051316,122053,115420
1766327418.4177341,121704,115214
1766327418.428928,122093,115424
1766327418.4399877,122093,115424
1766327418.4511037,121688,115229
1766327418.4622455,122038,115416
1766327418.473278,122038,115416
1766327418.4843028,122038,115416
1766327418.4953134,121733,115247
1766327418.5063307,122101,115400
1766327418.5173528,122101,115400
1766327418.528363,121799,115264
1766327418.5393686,122152,115447
1766327418.5503764,122152,115447
1766327418.561432,122152,115447
1766327418.5724907,121897,115310
1766327418.5835376,122214,115486
1766327418.5947225,122214,115486
1766327418.6058497,122214,115486
1766327418.6169221,122262,115480
1766327418.6279695,122262,115480
1766327418.639007,122262,115480
1766327418.6500487,121902,115318
1766327418.6611192,122293,115498
1766327418.672181,122293,115498
1766327418.683206,122293,115498
1766327418.6942272,121949,115332
1766327418.7052522,122296,115479
1766327418.716307,122296,115479
1766327418.7273304,121991,115364
1766327418.738354,122352,115514
1766327418.7493758,122352,115514
1766327418.760402,122352,115514
1766327418.7714624,122069,115384
1766327418.7825034,122346,115528
1766327418.7935426,122346,115528
1766327418.804596,122346,115397
1766327418.8156664,122357,115489
1766327418.8267198,122357,115489
1766327418.83776,122357,115489
1766327418.8488011,122163,115416
1766327418.8598454,122112,115421
1766327418.8709023,122112,115421
1766327418.8819423,122112,115421
1766327418.892985,122206,115431
1766327418.9040236,121860,115323
1766327418.91507,121860,115323
1766327418.9261305,122226,115450
1766327418.937171,121764,115263
1766327418.9482079,121764,115263
1766327418.9592476,121764,115263
1766327418.9702969,122239,115449
1766327418.9813433,121809,115309
1766327418.9923809,121809,115309
1766327419.0034277,121809,115372
1766327419.014473,121806,115303
1766327419.0255163,121806,115303
1766327419.0365548,121806,115303
1766327419.0475953,121727,115216
1766327419.058629,121897,115325
1766327419.069709,121897,115325
1766327419.0807564,121897,115325
1766327419.0917997,121630,115178
1766327419.1028347,122003,115394
1766327419.1138792,122003,115394
1766327419.124939,121606,115193
1766327419.1359823,121978,115361
1766327419.14702,121978,115361
1766327419.1580558,121978,115361
1766327419.1692262,121631,115194
1766327419.1802788,121993,115359
1766327419.1913567,121993,115359
1766327419.2024434,121729,115253
1766327419.2135017,122010,115372
1766327419.2245624,122010,115372
1766327419.2356126,122010,115372
1766327419.2466528,121791,115266
1766327419.257694,122059,115395
1766327419.2687554,122059,115395
1766327419.2798316,122059,115395
1766327419.2908905,121803,115264
1766327419.301932,122141,115415
1766327419.3129854,122141,115415
1766327419.3240492,121803,115259
1766327419.3350925,122195,115449
1766327419.3461308,122195,115449
1766327419.3571682,122195,115449
1766327419.3682227,121827,115266
1766327419.3792672,122223,115459
1766327419.390306,122223,115459
1766327419.401403,121866,115289
1766327419.41257,122272,115478
1766327419.4238122,122272,115478
1766327419.434943,122272,115478
1766327419.4459894,121962,115321
1766327419.4571476,122305,115493
1766327419.4682956,122305,115493
1766327419.4793172,122305,115493
1766327419.4903243,122030,115370
1766327419.5013328,122299,115485
1766327419.5123389,122299,115485
1766327419.5234604,122075,115363
1766327419.5344832,122248,115465
1766327419.545495,122248,115465
1766327419.5565038,122248,115465
1766327419.56754,122108,115381
1766327419.5786521,121940,115334
1766327419.5920646,121940,115334
1766327419.6033952,122134,115423
1766327419.614479,121706,115223
1766327419.6255367,121706,115223
1766327419.636579,121706,115223
1766327419.6476216,122164,115406
1766327419.6586626,121704,115214
1766327419.6697307,121704,115214
1766327419.6808543,122176,115401
1766327419.691885,121688,115229
1766327419.703073,121688,115229
1766327419.714209,121688,115229
1766327419.7253232,122125,115390
1766327419.736437,121733,115247
1766327419.747616,121733,115247
1766327419.7587245,121794,115263
1766327419.7697787,121799,115264
1766327419.781087,121799,115264
1766327419.7920513,121799,115264
1766327419.8030443,121587,115153
1766327419.814012,121897,115310
1766327419.8249793,121897,115310
1766327419.8359346,121897,115310
1766327419.8468883,121558,115132
1766327419.857841,121863,115295
1766327419.868802,121863,115295
1766327419.879755,121556,115151
1766327419.8907106,121902,115318
1766327419.9016638,121902,115318
1766327419.912621,121902,115318
1766327419.9235864,121603,115178
1766327419.9345508,121949,115332
1766327419.9455051,121949,115332
1766327419.956458,121949,115332
1766327419.9674191,121683,115241
1766327419.978373,121991,115364
1766327419.9895682,121991,115364
1766327420.0010297,121734,115226
1766327420.0173254,122069,115384
1766327420.0285285,122069,115384
1766327420.039786,121716,115226
1766327420.0510044,122108,115397
1766327420.0622501,122108,115397
1766327420.0734725,122108,115397
1766327420.084698,121717,115226
1766327420.0959072,122163,115416
1766327420.1071305,122163,115416
1766327420.1183693,121776,115227
1766327420.1295671,122206,115431
1766327420.14072,122206,115431
1766327420.1518567,122206,115431
1766327420.1633668,121841,115257
1766327420.1775157,122226,115450
1766327420.1889734,122226,115450
1766327420.2000759,121894,115288
1766327420.2111638,122239,115449
1766327420.222252,122239,115449
1766327420.2333465,122239,115449
1766327420.2444158,121972,115320
1766327420.2555835,122061,115372
1766327420.2692485,122061,115372
1766327420.2803233,122006,115369
1766327420.2915025,121727,115216
1766327420.3025496,121727,115216
1766327420.3135207,121727,115216
1766327420.3244886,122020,115346
1766327420.335447,121630,115178
1766327420.3464026,121630,115178
1766327420.3573565,122091,115333
1766327420.3683236,121606,115193
1766327420.379283,121606,115193
1766327420.3902361,121606,115193
1766327420.4012485,122116,115369
1766327420.4132724,121631,115194
1766327420.4243836,121631,115194
1766327420.4354038,122126,115391
1766327420.4463701,121729,115253
1766327420.457396,121729,115253
1766327420.4683597,121729,115253
1766327420.4793947,122188,115392
1766327420.4903636,121791,115266
1766327420.5013468,121791,115266
1766327420.5123065,121791,115266
1766327420.523261,122178,115404
1766327420.5342155,121803,115264
1766327420.5451682,121803,115264
1766327420.5561213,122013,115297
1766327420.567075,121803,115259
1766327420.578084,121803,115259
1766327420.5891118,121803,115259
1766327420.6001637,121681,115170
1766327420.6111834,121827,115266
1766327420.6221495,121827,115266
1766327420.633106,121570,115149
1766327420.64413,121866,115289
1766327420.6551123,121866,115289
1766327420.6661682,121866,115289
1766327420.6771321,121540,115131
1766327420.6880863,121962,115321
1766327420.6990435,121962,115321
1766327420.7099974,121962,115321
1766327420.720957,121566,115135
1766327420.7319102,122030,115370
1766327420.7428644,122030,115370
1766327420.75388,121594,115148
1766327420.7649322,122075,115363
1766327420.775992,122075,115363
1766327420.7870545,122075,115363
1766327420.7980237,121711,115205
1766327420.8090034,122108,115381
1766327420.8199632,122108,115381
1766327420.8309205,122108,115381
1766327420.841876,121736,115220
1766327420.8528478,122134,115423
1766327420.863803,122134,115423
1766327420.8747568,121717,115209
1766327420.8857088,122164,115406
1766327420.8966613,122164,115406
1766327420.9076147,122164,115406
1766327420.9185688,121731,115205
1766327420.9295213,122176,115401
1766327420.9404745,122176,115401
1766327420.9514263,121748,115210
1766327420.9623775,122125,115390
1766327420.9733322,122125,115390
1766327420.9842849,122125,115390
1766327420.9952366,121856,115261
1766327421.0061996,121794,115263
1766327421.0171542,121794,115263
1766327421.0281098,121794,115263
1766327421.0390651,121907,115280
1766327421.0500176,121587,115153
1766327421.060969,121587,115153
1766327421.0719247,121929,115273
1766327421.0828767,121558,115132
1766327421.09383,121558,115132
1766327421.1047826,121558,115132
1766327421.1157343,122011,115327
1766327421.1266854,121556,115151
1766327421.1376367,121556,115151
1766327421.1485894,121556,115151
1766327421.1595402,122039,115343
1766327421.1704926,121603,115178
1766327421.181445,121603,115178
1766327421.192414,122065,115332
1766327421.203387,121683,115241
1766327421.2144854,121683,115241
1766327421.2255433,121683,115241
1766327421.236607,122103,115355
1766327421.2475643,121734,115226
1766327421.2585247,121734,115226
1766327421.2694812,122089,115333
1766327421.2804337,121716,115226
1766327421.2913914,121716,115226
1766327421.3023455,121716,115226
1766327421.3132994,122095,115347
1766327421.3242536,121717,115226
1766327421.335206,121717,115226
1766327421.3461583,121717,115226
1766327421.3571103,121837,115228
1766327421.3680744,121776,115227
1766327421.3790295,121776,115227
1766327421.389983,121573,115106
1766327421.40095,121841,115257
1766327421.4119115,121841,115257
1766327421.422972,121841,115257
